60.415
359.03
942.86
1421.1
1228.6
160.44
-1480
-3068.4
-3939.1
-3697
-2448.4
-754.33
719.4
1592.3
1888.8
1850.3
1687.7
1501.3
1350
1295.9
1352.3
1430.1
1394.7
1188.5
879.68
582.6
350.49
157.54
-32.331
-210.07
-342.06
-425.06
-498.28
-600.58
-731.31
-859.71
-959.96
-1022.1
-1033.2
-968.69
-815.53
-600.76
-388.06
-242.36
-192.61
-220
-276.62
-316.85
-318.91
-286.23
-234.05
-174.06
-109.64
-42.727
19.658
68.856
104.35
137
178.63
228.03
271.01
296.91
311.43
328.88
353.75
375.36
381.74
374.41
365.09
358.39
343.69
308.32
254.73
199.33
155.07
119.36
81.083
37.077
-3.4106
-31.413
-50.588
-72.869
-103.2
-133.47
-153.23
-162.28
-168.9
-177.29
-181.44
-172.98
-152.23
-128.19
-107.46
-86.542
-58.178
-23.504
6.5254
22.802
27.504
29.298
31.492
29.022
16.942
-1.9228
-19.433
-30.11
-34.862
-37.534
-39.42
-38.323
-32.79
-25.361
-19.994
-16.887
-11.729
-0.5816
15.537
31.465
42.461
47.001
45.708
39.605
30.357
20.623
12.674
7.6222
6.1581
8.3437
12.87
17.909
22.255
25
25.017
21.379
14.007
4.0517
-6.2023
-14.108
-17.702
-16.352
-10.763
-2.7943
4.741
9.5099
11.523
12.468
13.527
14.798
15.684
15.094
12.341
8.3412
4.8508
2.1219
-1.6267
-8.3472
-18.178
-28.888
-37.141
-40.713
-39.94
-37.151
-34.885
-34.507
-35.874
-37.781
-38.279
-34.882
-25.927
-12.217
3.5488
18.987
33.165
45.81
55.976
61.903
62.395
58.153
51.828
46.849
45.606
47.884
50.755
50.472
44.478
31.864
13.662
-6.6414
-24.119
-34.785
-37.692
-35.311
-31.702
-29.88
-30.53
-32.599
-34.35
-33.767
-29.034
-19.446
-6.2313
6.5605
11.794
0.5676
-35.467
-100.51
-188.35
-275.57
-322.19
-288.14
-160.04
33.091
230.57
368.86
409.77
355.57
244.48
128.49
46.982
11.999
11.979
26.328
37.714
36.255
19.049
-10.988
-46.29
-77.327
-97.564
-106.93
-109.93
-110.54
-109.26
-104.83
-97.048
-86.939
-75.396
-62.948
-50.025
-37.023
-23.993
-10.026
6.4011
25.717
45.945
63.557
76
83.422
87.918
90.962
91.707
88.125
79.641
68.374
57.486
48.601
41.391
34.595
26.387
14.934
-0.2208
-17.434
-33.702
-46.287
-54.041
-57.447
-57.844
-56.408
-53.2
-47.144
-37.086
-23.181
-7.546
6.634
17.409
25.725
34.237
44.484
55.09
61.845
59.932
47.372
26.719
3.2789
-18.046
-34.711
-46.872
-56.109
-63.576
-69.483
-73.52
-74.904
-72.958
-68.187
-61.566
-53.127
-42.519
-30.195
-17.535
-5.9352
4.386
14.137
23.532
32.038
39.254
44.998
48.71
49.736
47.998
43.56
36.447
27.695
19.004
11.329
5.2222
1.7647
2.2447
7.2109
15.601
24.867
32.562
38.063
42.49
46.554
48.961
47.484
41.118
30.7
17.944
4.3426
-9.481
-23.865
-39.063
-54.126
-67.759
-79.647
-89.533
-96.021
-97.352
-92.292
-80.189
-61.231
-36.877
-9.9632
15.481
35.279
47.104
51.959
53.918
57.785
65.299
73.175
75.715
69.224
54.024
33.795
13.636
-2.2969
-12.656
-18.87
-22.812
-24.882
-24.602
-22.019
-18.03
-13.631
-8.9581
-3.2003
4.3724
12.976
19.677
19.625
6.039
-29.01
-89.742
-167.43
-233.7
-247.44
-178.17
-30.406
151.85
305.41
378.33
353.26
253.07
126.4
21.32
-36.992
-51.707
-42.31
-28.286
-21.024
-24.571
-38.595
-59.056
-78.461
-89.37
-89.315
-81.723
-71.899
-62.89
-55.106
-48.664
-44.402
-42.201
-39.936
-35.421
-28.947
-23.19
-20.588
-20.821
-20.671
-16.435
-6.6399
7.3852
23.05
37.976
50.142
57.839
60.384
58.708
54.927
51.258
49.175
49.158
50.583
51.55
49.457
42.688
31.901
19.494
8.0841
-0.3955
-4.946
-5.5898
-3.6963
-2.5211
-5.7561
-13.756
-22.303
-26.333
-23.808
-15.792
-4.9237
5.6727
13.54
17.666
18.288
15.992
10.917
3.1432
-6.5974
-17.312
-28.311
-38.918
-48.249
-55.648
-60.706
-62.766
-61.45
-57.66
-52.976
-47.954
-41.792
-33.929
-25.413
-18.174
-12.951
-8.4835
-2.9763
4.3471
13.357
23.614
34.233
43.759
50.824
54.739
55.367
53.121
49.413
46.126
43.98
41.846
37.99
31.939
25.249
20.175
17.228
14.696
10.653
4.9967
-0.1323
-2.3021
-1.7017
-1.2666
-3.7656
-9.3955
-15.913
-20.381
-20.756
-16.887
-10.97
-6.5562
-6.3363
-10.571
-17.541
-25.082
-31.275
-34.247
-32.536
-26.302
-17.721
-9.7088
-4.2809
-1.7013
-0.2455
3.0459
9.4976
16.387
19.289
16.594
10.356
3.9009
-0.1482
-0.6846
1.4134
3.6037
3.4136
0.219
-4.6617
-9.3199
-12.516
-13.696
-12.441
-8.8244
-3.704
2.1196
8.0687
12.662
12.316
0.4441
-31.263
-86.643
-155.77
-210.39
-212.57
-136.51
10.101
183.53
324.44
386.55
356.65
257.75
134.94
31.465
-30.407
-52.86
-51.906
-44.29
-41.139
-47.701
-63.801
-84.023
-100.45
-107.64
-105.42
-97.348
-87.014
-75.641
-62.838
-49.162
-37.197
-29.681
-26.645
-24.773
-19.987
-10.645
1.6496
13.665
22.926
29.176
33.628
37.045
39.415
41.157
43.262
46.013
48.446
49.159
47.204
42.366
35.079
26.286
17.43
10.107
5.2803
2.9677
2.3333
1.5515
-1.4403
-6.9483
-12.741
-15.826
-14.5
-8.8207
-0.4745
7.8395
14.099
17.789
18.976
17.857
15.214
12.505
11.32
12.285
14.281
14.977
12.333
5.5954
-4.7122
-17.12
-29.727
-40.67
-48.197
-51.478
-51.79
-51.41
-51.301
-51.089
-50.284
-48.367
-44.674
-38.921
-31.522
-23.137
-14.28
-5.492
2.4961
8.8517
13.152
15.972
18.521
21.654
25.24
28.384
30.527
31.971
33.002
33.291
32.649
31.568
30.285
28.206
25.023
21.493
18.549
16.468
15.149
14.485
14.19
13.565
11.772
8.3985
3.777
-1.2746
-6.3547
-11.904
-18.312
-25.09
-31.069
-34.95
-35.636
-32.517
-26.247
-19.111
-13.398
-9.2359
-4.5782
2.9879
14.313
27.569
39.123
46.021
47.638
45.729
43.289
42.172
41.254
37.468
28.721
15.345
-0.579
-16.197
-28.657
-36.095
-38.474
-37.556
-35.859
-35.413
-37.093
-40.301
-42.924
-42.434
-37.511
-28.13
-14.842
0.2407
11.841
11.781
-8.8735
-55.739
-125.1
-197.99
-239.87
-213.8
-104.35
66.003
243.46
368.64
404.65
352.27
245.43
130.71
43.778
-3.8111
-21.483
-26.371
-31.828
-43.894
-63.137
-86.692
-108.96
-123.16
-124.9
-115.41
-100.97
-88.233
-79.854
-74.609
-70.239
-65.034
-57.945
-48.326
-35.862
-21.272
-6.6239
6.0314
16.146
24.592
32.444
40.022
46.963
53.163
59.331
65.923
72.177
77.093
80.242
80.851
77.49
69.397
57.313
43.046
29.128
18.101
10.589
4.5772
-2.4332
-11.149
-20.304
-27.758
-31.711
-31.505
-27.908
-23.022
-19.004
-16.076
-12.906
-9.0048
-4.9554
-0.7994
3.8154
8.3659
11.635
12.765
11.482
7.5833
0.8921
-8.1482
-18.208
-27.424
-34.312
-38.644
-41.167
-42.634
-43.537
-44.019
-43.511
-41.245
-37.044
-31.199
-24.14
-16.58
-9.5746
-3.9005
0.8298
6.3087
14.199
23.974
32.369
35.586
32.005
22.937
11.716
2.5435
-0.8877
2.8954
12.548
25.155
37.587
46.906
50.881
48.908
42.224
33.303
24.918
19.074
16.421
16.11
16.021
14.044
9.6543
3.9481
-1.7782
-7.1201
-12.664
-19.441
-27.69
-35.783
-41.076
-42.144
-39.526
-34.684
-29.526
-26.37
-26.613
-29.035
-30.198
-26.607
-16.656
-1.8952
13.135
23.539
26.98
24.547
20.128
18.29
20.758
24.803
25.802
21.078
11.358
-0.316
-10.543
-17.095
-19.337
-17.964
-14.756
-11.881
-10.466
-9.9646
-8.8709
-5.5889
0.9308
10.323
20.591
29.186
33.491
29.6
11.599
-26.779
-87.831
-162.85
-226.78
-243.7
-185.91
-54.873
114.25
268.56
361.37
371.08
307.99
206.11
104.24
28.433
-14.229
-31.014
-34.86
-37.328
-45.428
-61.221
-81.796
-100.53
-111.29
-112.74
-108.33
-102.08
-95.137
-86.629
-76.456
-65.952
-56.452
-48.008
-39.692
-30.916
-22.006
-13.417
-4.8854
4.1346
13.418
22.132
29.946
37.174
44.173
51.396
59.244
67.012
72.881
75.363
73.869
68.359
59.624
49.31
38.764
28.443
18.809
10.938
5.818
3.2013
1.3705
-1.8203
-7.7118
-15.761
-23.422
-27.964
-28.299
-25.022
-19.43
-12.516
-4.8494
2.6099
8.2965
10.806
9.3791
4.3406
-2.1665
-7.0731
-9.0008
-9.3006
-10.311
-13.254
-17.764
-22.784
-27.639
-32.202
-36.171
-38.756
-39.34
-37.975
-35.126
-31.313
-26.764
-21.431
-15.941
-11.728
-9.3435
-7.7046
-5.3321
-1.4446
3.8999
10.469
18.366
27.019
34.425
38.619
39.217
37.159
33.866
30.64
28.123
26.189
24.087
20.741
16.014
11.465
8.8706
8.6116
10.006
12.314
15.009
17.258
17.446
13.959
6.7018
-2.3858
-10.334
-14.791
-15.096
-12.422
-9.2467
-7.9754
-9.3519
-12.155
-14.655
-16.239
-17.322
-18.427
-20.267
-23.938
-30.045
-37.503
-43.044
-42.376
-32.83
-15.6
4.493
21.562
31.658
34.766
34.344
34.16
35.195
35.5
32.815
26.924
19.392
11.586
3.6477
-4.7667
-13.699
-22.748
-30.804
-36.347
-38.794
-38.567
-35.631
-29.462
-20.014
-7.7165
6.3133
19.603
28.074
25.667
4.8104
-40.455
-108.5
-182.77
-229.89
-212.47
-113.15
49.144
225.02
357.67
408.14
371.23
274.86
162.38
69.313
9.9494
-20.449
-35.114
-46.751
-63.109
-85.653
-110.46
-130.55
-139.14
-133.8
-118.77
-101.78
-88.083
-77.863
-68.556
-58.778
-49.701
-43.101
-38.777
-34.052
-25.658
-12.445
3.6986
19.481
32.082
39.708
41.742
39.163
34.581
31.252
31.308
34.563
39.129
42.94
44.61
44.006
42.504
41.971
43.048
44.173
42.428
35.839
24.983
12.425
1.0812
-6.6798
-9.2651
-6.6336
-1.1515
3.3569
4.0576
0.3548
-6.6849
-15.092
-22.692
-28.092
-31.126
-32.361
-32.049
-29.676
-24.92
-18.279
-10.182
-1.0081
7.6193
13.242
14.359
11.154
5.1996
-1.4046
-6.9924
-10.861
-13.295
-14.871
-16.1
-17.625
-19.623
-21.384
-22.064
-21.323
-19.292
-16.257
-12.612
-9.1619
-6.8644
-5.9914
-5.8997
-5.5926
-4.3413
-1.9937
1.2394
5.2286
9.924
14.952
19.644
23.654
27.049
29.764
31.544
32.193
31.618
30.069
28.331
27.238
26.797
25.798
22.634
16.865
9.6312
2.4153
-3.9025
-8.9097
-12.407
-14.236
-14.142
-12.012
-8.3566
-4.4545
-1.9669
-2.1525
-5.1431
-10.07
-15.844
-21.502
-26.191
-29.337
-30.718
-30.5
-29.56
-28.901
-28.318
-26.966
-25.086
-23.651
-22.641
-20.46
-15.102
-5.884
6.2966
19.781
32.815
44.392
54.441
62.74
68.185
69.41
65.958
58.566
48.409
36.347
22.853
8.6333
-4.7296
-15.101
-21.368
-24.704
-27.747
-32.469
-38.467
-42.98
-43.199
-38.519
-30.28
-20.341
-10.851
-5.4188
-10.461
-34.543
-83.379
-151.19
-214.35
-235.78
-183.07
-51.597
125.34
289.93
387.94
393.35
317.38
199.42
85.283
5.3345
-34.526
-46.305
-46.519
-47.149
-54.538
-70.694
-92.431
-111.49
-119.18
-112.08
-93.416
-69.482
-45.834
-26.171
-13.018
-7.9583
-10.691
-18.225
-25.7
-28.94
-26.686
-20.409
-12.675
-5.9526
-1.6863
0.3454
1.5251
3.3651
6.7843
11.636
16.765
20.721
22.565
22.66
23.012
26.02
32.24
39.339
43.26
41.036
33.227
23.549
15.955
12.186
11.648
12.51
12.764
11.498
9.6743
9.1151
10.741
14.026
17.758
20.858
22.532
22.181
19.532
14.941
9.6786
5.4132
2.8991
1.5365
-0.0362
-3.5138
-10.408
-20.92
-32.992
-42.985
-48.013
-48.07
-45.85
-44.154
-43.962
-45.113
-47.016
-48.091
-46.078
-39.688
-29.709
-18.598
-9.032
-2.3109
2.2795
6.692
12.414
19.186
25.603
30.681
34.119
35.707
35.449
33.943
31.962
29.779
27.411
25.456
25.119
26.86
29.254
30.111
28.471
24.911
20.593
16.22
11.576
6.3153
0.6999
-4.8021
-9.9014
-14.438
-18.3
-21.159
-22.532
-22.325
-21.016
-19.413
-18.117
-16.913
-15.225
-13.054
-10.687
-8.2659
-6.4492
-6.3547
-8.2031
-10.968
-13.59
-15.705
-17.176
-17.83
-17.892
-18.015
-18.377
-17.674
-13.84
-6.2052
3.581
12.411
16.996
15.65
10.187
5.4516
5.9618
12.461
21.458
28.255
30.285
27.619
21.72
14.708
8.9782
6.4333
7.2901
9.3326
9.3949
6.0479
0.3439
-5.4227
-9.0744
-9.5211
-7.3488
-4.4604
-2.9077
-4.742
-13.821
-37.246
-82.844
-151.61
-228.75
-281.89
-274.53
-190.46
-50.307
95.406
192.48
210.49
155.6
64.191
-17.204
-54.773
-40.783
9.0814
69.794
120.94
152.56
164.43
163.65
161.16
166.62
182.74
202.8
214.85
210.41
189.7
159.99
130.26
106.56
90.378
79.395
68.875
53.636
30.403
-1.2408
-39.422
-80.846
-121.63
-158.1
-187.61
-209.41
-224.63
-235.46
-244.04
-251.38
-256.76
-258.13
-253.41
-241.8
-224.01
-201.55
-175.84
-147.94
-118.64
-88.599
-58.445
-28.691
0.1612
27.696
54.224
80.888
108.28
135.18
159.25
178.48
191.88
199.48
201.96
200.09
194.26
184.7
172.31
158.55
144.26
129.04
111.64
90.398
63.741
31.218
-5.895
-45.049
-83.334
-117.81
-145.38
-163.66
-172.59
-174.52
-172.1
-166.38
-157.24
-145.18
-131.56
-117.54
-103.94
-91.422
-79.799
-67.656
-53.642
-37.616
-20.247
-2.3074
15.332
31.489
45.063
55.78
64.041
70.29
74.916
78.241
80.124
79.845
76.732
70.811
62.877
54.316
46.859
42.097
40.668
41.657
43.444
45.652
49.826
58.068
71.368
89.103
109.51
129.9
146.74
156.64
157.99
151.56
139.86
126
112.78
101.61
91.52
79.591
62.903
40.385
13.06
-17.032
-47.769
-76.797
-101.19
-118.26
-126.67
-127.32
-124.24
-123.96
-132.23
-151.21
-180.1
-218.35
-267.28
-328.34
-400.6
-480.38
-562.04
-637.48
-695.76
-725.35
-716.9
-664.75
-568.58
-434.63
-273.8
-97.596
85.063
268.62
449.71
625.72
793.94
950.49
1089.5
1203.6
1284.9
1326.9
1331.1
1312.8
1297.4
1302.9
1324.3
1332.2
1288.1
1162.5
948.26
662.44
336.44
0.3971
-327.75
-640.92
-934.39
-1200.3
-1428.5
-1611.4
-1745.5
-1830.7
-1867.6
-1858.5
-1808.3
-1724.6
-1614.2
-1480.6
-1325.4
-1151.3
-964.44
-771.75
-578.01
-385.81
-197.16
-14.736
158.02
317.44
460.08
583.4
686.44
769.6
833.74
880.17
911.2
929.87
938.52
937.72
926.49
903.97
870.71
828.4
778.65
722.3
659.66
591.28
517.98
440.89
362.04
284.1
209.19
138.07
70.861
7.6751
-51.736
-108.51
-164.33
-220.66
-277.92
-334.22
-385.89
-429.78
-464.56
-490.12
-506.97
-515.91
-517.02
-509.04
-490.55
-461.92
-425.48
-384.1
-340.05
-294.84
-249.28
-203.04
-154.7
-102.89
-47.813
8.2523
62.212
111.91
156.39
195.24
228.93
259.07
287.73
315.39
339.69
357.18
366.24
367.92
364.57
358.23
349.19
335.74
315.6
288.05
254.44
217.03
177.87
138.61
100.39
63.37
27.067
-8.7781
-44.117
-78.568
-110.98
-139.82
-164.71
-187.26
-210.02
-234.64
-260.45
-284.69
-304.22
-316.7
-321.07
-318.56
-312.84
-308.1
-307.1
-310.89
-318.81
-328.44
-336.19
-337.87
-328.99
-304.95
-261.9
-198.52
-117.49
-24.81
72.781
170.54
266.37
359.36
447.91
529.12
599.68
657.57
703.18
737.78
759.89
762.43
734.4
667.04
559.75
421.67
269.07
119.27
-15.977
-133.16
-234.41
-323.36
-402.16
-470.59
-527.04
-570.14
-599.3
-614.07
-613.92
-599.25
-572.81
-540.6
-511.7
-496.13
-499.48
-514.57
-516.09
-467.46
-341.48
-142.11
90.894
299.97
437.26
484.94
459.39
398.42
339.49
302.85
288.93
287.53
288.1
284.19
272.72
253.04
227.27
200.08
176.35
158.26
144.02
130
114.24
97.025
78.588
57.97
34.541
9.9291
-12.282
-29.187
-40.694
-48.872
-55.752
-62.225
-68.604
-75.476
-83.607
-92.88
-101.72
-108.04
-110.59
-109.33
-105.08
-99.082
-92.622
-86.857
-82.598
-79.418
-75.506
-69.172
-59.783
-47.011
-30.367
-9.9224
12.963
35.936
56.703
73.584
85.277
91.072
92.042
91.596
93.333
97.792
102.34
104.1
101.8
95.614
86.469
75.651
63.903
50.638
34.975
17.413
0.0898
-14.241
-23.808
-29.401
-34.042
-40.361
-48.672
-57.52
-65.365
-71.722
-76.941
-81.48
-85.547
-88.76
-90.025
-88.443
-84.496
-79.852
-76.3
-75.301
-77.633
-82.62
-87.943
-90.439
-87.27
-77.179
-61.204
-41.669
-20.421
1.4774
23.437
45.842
69.954
96.48
124.39
150.9
172.26
185.17
188.29
182.82
171.41
156.71
140.28
121.94
99.858
72.525
41.078
9.1452
-19.477
-42.857
-61.257
-76.262
-89.724
-102.58
-114.06
-122.53
-127.35
-129.04
-128.28
-125.97
-123.92
-123.88
-125.47
-126.11
-122.86
-113.92
-98.714
-77.723
-52.451
-24.932
2.6125
27.729
48.329
63.791
75.396
85.688
96.607
107.42
114.6
114.39
106.01
92.444
78.331
67.001
58.916
52.163
44.818
36.71
28.937
22.768
19.125
18
17.955
16.94
14.497
12.016
9.2176
1.1278
-21.002
-65.493
-133.39
-210.6
-265.51
-260.62
-175.41
-23.614
149.5
288.09
351.59
331.28
250.14
147.46
57.912
-2.073
-33.776
-46.838
-51.297
-54.616
-61.359
-73.03
-87.555
-99.898
-105.08
-101.79
-93.03
-83.262
-74.961
-68.047
-61.656
-55.151
-47.587
-37.406
-23.496
-6.5342
11.122
26.764
38.623
46.289
49.751
48.692
43.664
37.293
33.28
34.221
40.349
49.418
57.514
61.11
58.926
51.771
41.109
28.155
13.752
-1.2823
-15.475
-26.68
-33.257
-35.313
-34.624
-33.348
-32.781
-32.789
-31.907
-28.397
-21.911
-14.221
-8.1639
-5.8792
-7.5398
-11.03
-12.767
-9.9306
-2.9564
4.9152
10.961
14.603
16.308
16.9
17.646
19.327
21.139
21.141
17.722
10.87
2.5759
-4.3383
-8.3463
-10.343
-12.752
-17.105
-22.331
-25.828
-26.043
-23.453
-19.559
-15.71
-12.397
-9.3771
-6.8786
-6.0451
-7.486
-10.033
-11.619
-10.874
-7.5309
-2.2957
3.2978
7.9127
11.463
14.573
17.328
19.123
19.672
19.676
20.203
21.618
23.14
23.202
20.636
15.771
10.168
5.4611
2.6856
2.0378
2.632
3.0244
2.4126
0.9383
-0.9996
-2.9291
-4.0523
-3.7181
-2.0831
-0.0137
1.4524
1.6803
0.5664
-2.0303
-6.3276
-11.803
-17.341
-22.302
-26.537
-29.411
-29.592
-26.061
-18.964
-9.5388
0.3817
9.2362
16.45
22.126
26.711
31.04
35.341
38.238
37.692
32.735
24.042
13.249
2.2428
-7.2616
-14.415
-19.368
-22.463
-23.763
-23.368
-21.942
-20.606
-20.097
-20.062
-18.969
-14.691
-6.2297
3.9053
8.9225
-0.591
-33.605
-93.11
-167.68
-226.73
-229.84
-150.47
2.6344
184.62
335.01
405.93
383.11
289.62
170.88
69.216
4.6958
-25.804
-36.011
-38.843
-43.154
-54.669
-75.05
-99.578
-118.89
-125.44
-118.73
-104.75
-90.905
-81.227
-75.429
-71.41
-67.594
-62.917
-55.923
-45.238
-30.891
-14.721
0.4598
12.445
20.708
26.385
31.653
38.152
45.316
51.175
54.627
56.002
56.156
55.685
54.687
53.004
50.303
46.004
39.717
31.584
22.271
13.115
5.8698
1.5838
-0.1995
-0.818
-1.205
-1.707
-2.6523
-3.9292
-4.3154
-2.4266
1.6619
6.3523
9.6314
9.9179
6.8819
1.757
-3.8484
-9.0411
-13.332
-16.289
-17.797
-18.236
-18.577
-20.372
-24.836
-31.279
-37.137
-40.08
-39.499
-36.13
-30.954
-24.809
-18.906
-14.861
-13.967
-16.584
-21.692
-26.939
-29.526
-27.409
-20.226
-9.4912
1.9043
10.799
15.574
17.318
18.735
21.811
26.715
32.594
38.434
42.829
44.096
41.657
36.91
32.082
28.486
26.287
25.133
24.294
22.872
20.331
16.832
13.109
9.8357
7.0202
4.2275
1.3083
-1.4701
-4.142
-7.2621
-10.949
-14.459
-17.059
-18.479
-18.723
-18.284
-17.986
-18.128
-18.386
-18.598
-19.038
-19.921
-21.173
-22.696
-24.508
-26.548
-28.577
-30.147
-30.355
-28.018
-22.319
-13.224
-1.7078
10.367
21.051
29.191
34.701
38.178
40.37
41.843
42.611
41.854
38.291
31.083
20.605
8.5002
-3.0786
-12.186
-17.192
-17.378
-14.161
-10.804
-10.136
-12.595
-16.275
-18.723
-18.345
-14.396
-7.2374
0.4914
3.4793
-5.3306
-33.361
-84.827
-152.65
-210.88
-220.05
-150
-4.6216
173
320.12
385.32
352.93
247.95
120.15
16.846
-39.138
-53.349
-46.364
-37.309
-36.463
-46.419
-64.656
-84.909
-99.431
-102.8
-95.135
-81.846
-69.422
-60.773
-54.426
-47.525
-39.12
-30.357
-22.109
-13.779
-4.6451
4.7804
13.159
19.476
23.735
26.76
29.048
30.277
30.434
30.482
31.294
32.606
33.446
33.116
31.49
28.882
25.721
22.195
18.462
15.124
13.097
12.785
13.541
14.03
12.81
9.1063
4.0271
0.3964
0.3212
3.0391
5.4063
4.5146
-0.0037
-5.9717
-10.584
-12.269
-10.919
-7.016
-1.5095
3.8064
6.9
6.8059
3.9897
-0.6782
-6.8238
-14.13
-21.716
-28.634
-34.419
-38.882
-41.98
-43.68
-43.657
-41.673
-38.298
-34.709
-31.492
-27.856
-22.268
-14.088
-4.6759
3.5497
9.1866
12.708
15.7
19.455
24.069
28.803
32.985
36.4
38.858
39.785
38.887
36.776
34.171
31.235
27.994
24.285
19.636
14.231
9.3071
6.225
5.5596
6.4001
6.3883
3.5773
-1.9738
-9.0432
-16.525
-23.238
-27.61
-28.43
-25.674
-20.514
-14.972
-11.097
-9.7658
-10.321
-11.36
-11.554
-9.9273
-6.1282
-0.9892
3.3068
4.2742
0.8173
-6.0873
-13.986
-19.947
-22.025
-20.828
-18.78
-17.141
-14.542
-8.4726
2.1686
15.514
27.637
35.382
38.565
39.619
41.185
43.863
45.745
43.709
35.495
21.334
4.1454
-12.027
-24.043
-30.472
-31.422
-28.223
-23.229
-19.46
-18.964
-21.058
-23.205
-23.334
-20.639
-14.915
-6.5793
1.7673
4.3032
-6.9344
-39.239
-94.129
-159.65
-206.2
-196.11
-106.91
48.041
219.3
344.69
380.79
322.96
203.99
75.018
-20.36
-64.284
-65.522
-46.202
-26.907
-19.282
-26.245
-44.788
-67.754
-85.893
-92.314
-86.508
-73.941
-61.522
-52.916
-47.562
-43.389
-39.239
-34.6
-28.803
-21.556
-13.531
-5.7254
1.5368
8.7612
16.479
24.225
30.413
33.539
33.9
33.629
34.33
35.519
35.741
34.206
31.554
29.553
29.431
30.336
29.696
25.179
16.669
6.3513
-3.2299
-10.702
-15.855
-18.916
-19.61
-17.157
-11.555
-4.2867
2.4619
7.3112
10.576
13.406
16.138
17.862
17.533
15.248
12.333
10.153
8.9271
7.8755
6.1243
2.9256
-2.454
-10.139
-19.059
-27.602
-34.834
-40.762
-45.7
-49.693
-52.34
-53.106
-51.778
-48.291
-42.474
-34.491
-25.227
-15.878
-7.2194
0.6021
7.7148
14.128
19.637
23.999
27.329
30.373
34.019
38.328
42.077
43.501
41.58
36.561
29.606
22.154
15.498
10.624
8.0183
7.8447
10.137
14.053
17.411
17.872
14.418
7.5804
-1.4423
-11.37
-20.38
-26.045
-26.498
-21.728
-13.87
-6.1091
-1.0875
0.1052
-1.885
-5.1882
-7.7893
-8.992
-9.6493
-10.449
-11.191
-12.201
-14.563
-18.212
-21.501
-23.167
-23.331
-22.579
-21.057
-18.109
-12.472
-3.4603
7.786
18.571
26.585
31.793
36.399
42.351
48.477
50.808
46.005
34.08
18.271
3.185
-7.3683
-12.356
-13.693
-13.818
-13.816
-14.033
-15.004
-17.127
-19.969
-22.443
-23.497
-22.364
-18.555
-12.299
-5.511
-2.7037
-11.04
-38.67
-89.915
-156.87
-213.3
-221.36
-152.67
-10.268
165.89
316.12
390.08
369.96
276.21
154.09
49.013
-14.377
-37.533
-37.391
-31.679
-31.606
-41.733
-60.896
-82.934
-99.501
-104.78
-98.792
-86.828
-75.511
-68.331
-64.243
-60.216
-54.402
-46.902
-38.434
-29.006
-18.136
-6.411
4.0739
11.676
17.045
22.292
28.605
35.424
41.524
45.7
47.024
45.452
41.963
37.99
34.515
31.651
29.158
26.704
23.532
18.796
12.379
4.9943
-2.2379
-8.0302
-11.225
-11.477
-9.5877
-6.7838
-3.7218
-0.6045
2.3522
5.2817
8.3888
11.269
13.361
14.218
13.575
12.039
10.679
9.5837
7.8762
5.1865
2.1316
-0.9858
-5.0826
-11.363
-19.842
-28.908
-36.269
-40.402
-41.226
-39.805
-37.707
-36.299
-36.013
-35.864
-34.083
-29.857
-24.09
-18.21
-13.002
-8.6001
-4.6081
-0.1592
5.3821
11.713
17.891
23.32
27.917
31.057
31.485
29.196
26.235
24.843
26.11
29.765
33.338
33.298
28.515
21.213
14.835
11.963
13.213
17.131
21.072
22.249
18.709
10.38
-0.6994
-11.723
-20.761
-27.19
-31.167
-32.988
-32.678
-29.971
-24.927
-18.715
-13.26
-9.7586
-7.7489
-5.8174
-2.9831
0.4697
2.745
1.5945
-3.6265
-11.603
-20.245
-27.157
-30.149
-28.646
-23.988
-17.814
-10.519
-1.4389
9.6339
21.468
31.887
38.837
41.449
40.929
40.072
41.054
43.695
45.77
44.163
36.408
22.607
5.8106
-9.9256
-21.95
-29.867
-34.421
-36.17
-35.357
-32.288
-27.486
-21.734
-16.108
-11.565
-7.7927
-3.1779
2.719
5.973
-2.5921
-33.782
-92.504
-169.55
-237.22
-255.97
-194.98
-54.998
125.92
289.28
383.44
386.22
312.58
203.44
102.15
34.247
1.9119
-7.7337
-10.117
-15.796
-29.582
-51.69
-78.004
-101.25
-114.85
-116.97
-110.95
-101.97
-93.533
-86.316
-79.536
-72.767
-65.792
-57.583
-46.945
-33.838
-19.56
-6.0423
5.3308
14.866
24.151
34.106
43.883
51.879
57.254
60.17
61.091
60.329
58.236
55.339
51.846
47.265
40.9
32.675
23.219
13.389
4.0542
-3.8523
-9.4646
-12.628
-14.4
-16.075
-17.453
-16.701
-11.918
-2.5656
10.046
22.977
32.378
34.745
28.492
15.199
-0.7121
-14.502
-23.749
-28.586
-30.088
-29.154
-26.609
-23.466
-20.601
-18.4
-17.083
-16.964
-18.114
-20.134
-22.412
-24.418
-25.741
-26.099
-25.486
-24.015
-21.495
-17.719
-13.322
-9.6813
-7.7054
-6.9066
-5.7254
-2.8854
1.4801
6.3868
11.545
17.634
25.075
32.972
39.255
41.873
39.921
34.226
27.418
22.806
22.384
25.432
28.77
28.981
24.943
18.08
10.766
5.0197
1.6875
0.0512
-1.4463
-3.9095
-7.3179
-11.049
-14.668
-17.837
-20.109
-21.201
-20.984
-19.248
-16.078
-12.61
-10.627
-11.02
-13.162
-15.568
-16.651
-15.18
-10.817
-4.7594
0.2903
1.6463
-1.2629
-6.6232
-11.923
-15.219
-15.546
-13.362
-10.335
-8.0652
-6.8537
-5.5994
-2.5906
3.5347
12.748
23.111
31.755
36.875
39.191
41.135
43.884
46.064
45.4
40.141
29.526
14.565
-1.7456
-15.764
-25.112
-29.597
-30.58
-29.598
-27.925
-26.832
-26.822
-26.785
-25.019
-21.032
-15.631
-9.6787
-3.8122
0.3367
-1.8165
-18.345
-57.316
-119.18
-188.25
-231.35
-211.66
-112.51
46.99
217.85
344.74
391.46
354.83
262.18
154.76
66.133
10.046
-16.892
-25.795
-28.462
-34.154
-48.076
-70.344
-95.712
-115.72
-123.76
-119.66
-108.98
-97.667
-88.21
-80.073
-72.042
-63.394
-53.718
-42.611
-30.09
-17.352
-6.4968
1.1082
6.1549
10.928
17.669
27.086
37.601
46.402
51.907
54.62
55.869
56.846
58.133
59.025
57.996
54.097
47.177
37.417
25.576
13.175
1.9228
-7.0804
-13.439
-16.64
-15.872
-11.057
-3.3837
4.9274
11.099
13.179
11.533
8.3781
5.8626
4.7604
4.3718
3.3537
0.9424
-2.6678
-6.973
-11.693
-16.806
-22.261
-27.346
-30.806
-32.037
-31.398
-29.51
-27.365
-26.547
-28.174
-31.498
-34.011
-33.255
-28.481
-20.849
-12.538
-5.5816
-1.1492
0.71
1.0726
1.3768
2.1511
3.0464
4.1881
6.4994
10.591
15.709
19.968
21.889
21.386
19.664
18.866
20.824
25.281
29.899
32.203
31.311
28.253
24.817
21.949
19.323
16.314
13.038
10.447
9.2617
8.7069
6.648
1.2983
-7.0205
-16.033
-23.572
-28.714
-30.827
-29.109
-23.803
-16.889
-10.952
-7.6759
-7.3828
-9.1525
-11.102
-11.358
-9.2813
-5.7649
-2.5553
-1.229
-2.3033
-5.1411
-8.7615
-12.19
-14.086
-13.135
-8.9072
-2.15
5.248
10.861
13.018
11.416
6.6703
0.1724
-6.0507
-10.153
-10.792
-7.2322
-0.0588
8.6481
16.397
21.64
24.359
25.801
27.844
32.011
37.89
42.298
41.052
32.16
17.47
1.579
-11.156
-18.887
-22.166
-22.887
-23.033
-23.549
-24.577
-26
-27.134
-26.844
-24.398
-19.908
-13.92
-7.3032
-2.3427
-3.6321
-17.623
-51.24
-107.78
-178.13
-233.89
-235.09
-154.46
-0.3722
182.23
333.31
405.87
386.14
296.86
181.68
81.072
15.493
-16.273
-27.068
-30.072
-34.313
-45.305
-64.55
-87.944
-107.44
-116.32
-113.89
-105.25
-96.266
-89.306
-83.61
-77.906
-71.757
-64.932
-56.102
-43.224
-26.016
-7.0977
9.9866
23.294
33.128
40.651
46.16
49.148
49.655
48.659
47.269
46.325
46.372
46.987
46.382
42.616
35.556
27.113
19.045
11.434
3.9675
-2.75
-7.7877
-10.576
-10.675
-7.8534
-2.7952
2.9295
7.702
10.673
12.288
13.853
16.278
19.226
21.111
19.928
14.733
6.7677
-1.1364
-6.7735
-10.137
-12.427
-14.438
-16.859
-20.579
-25.469
-30.125
-33.306
-34.768
-34.938
-34.558
-34.339
-34.363
-33.971
-32.455
-29.774
-26.519
-23.222
-19.784
-15.574
-10.045
-3.3388
3.493
8.8647
11.861
13.186
14.451
16.846
20.43
24.187
26.896
28.069
28.1
27.715
27.294
26.643
25.11
22.23
18.688
16.053
15.382
16.745
19.57
22.625
24.171
22.564
16.98
8.0831
-2.2786
-11.989
-18.996
-22.073
-21.798
-19.78
-17.159
-14.322
-11.536
-9.4587
-8.8655
-10.002
-12.611
-16.186
-19.613
-21.329
-20.519
-17.76
-14.183
-10.456
-6.8564
-3.8465
-2.0057
-1.3343
-1.0112
-0.0824
1.841
4.4512
7.0018
8.711
9.3737
9.7728
10.26
9.2374
5.1197
-1.2025
-7.3128
-11.074
-11.221
-7.7239
-1.8272
4.6733
10.343
14.442
16.794
18.068
19.972
24.267
31.243
38.908
43.463
41.245
30.908
14.369
-3.9143
-19.062
-28.13
-30.985
-29.356
-25.649
-22.47
-21.906
-24.314
-27.819
-29.375
-26.87
-20.411
-11.807
-3.9614
-1.0326
-8.111
-30.557
-72.511
-131.26
-188.78
-211.28
-165.38
-43.185
124.98
282.48
374.55
374.63
294.9
177
68.656
0.0546
-26.153
-26.778
-21.746
-23.149
-34.416
-54.217
-78.455
-100.32
-112.68
-112.61
-103.37
-91.375
-80.956
-72.101
-62.967
-52.785
-42.115
-31.528
-20.901
-10.388
-1.361
4.8327
8.8279
12.701
17.834
24.225
30.916
36.441
39.729
40.857
40.806
40.711
41.229
41.835
40.569
35.65
27.208
16.809
6.5486
-0.8655
-2.9446
0.4825
6.657
11.799
13.42
11.347
7.1429
2.5627
-1.5167
-4.8671
-7.1311
-7.7593
-6.4791
-3.2706
1.6803
7.4719
12.65
16.243
18.194
18.823
17.993
14.976
9.1828
0.6642
-9.7236
-20.2
-28.611
-33.653
-35.774
-36.959
-39.159
-42.508
-45.199
-45.369
-43.017
-39.671
-36.463
-33.155
-28.852
-23.14
-16.522
-10.019
-4.3781
0.3011
4.1319
7.3425
10.721
15.213
21.134
28.078
35.109
40.95
44.474
45.203
43.4
39.927
35.915
32.08
28.524
25.256
22.283
19.35
16.274
13.563
12.246
12.41
12.249
9.4469
3.1281
-5.7901
-15.352
-23.379
-27.965
-28.052
-24.294
-19.106
-15.211
-13.825
-14.325
-15.634
-17.45
-19.819
-22.089
-22.978
-21.363
-16.913
-10.568
-4.3484
-0.2809
0.6715
-0.6826
-1.9528
-1.0087
2.0046
4.7878
5.0301
2.2468
-2.3512
-6.9045
-9.5697
-9.3844
-6.943
-3.4804
0.3951
4.3878
7.8955
10.884
14.563
19.768
25.373
29.963
34.347
40.201
46.516
49.432
45.593
34.884
20.139
4.4404
-10.296
-22.204
-29.518
-32.623
-34.006
-35.328
-35.947
-34.812
-32.353
-29.682
-26.882
-22.926
-16.78
-8.5876
-0.7307
1.5993
-9.3598
-41.561
-96.616
-160.63
-201.31
-181.1
-82.296
75.229
239.3
350.79
372.29
304.63
183.82
60.881
-24.233
-59.17
-57.284
-41.704
-30.087
-29.727
-40.298
-57.556
-75.376
-87.222
-88.795
-80.627
-67.524
-54.962
-45.774
-39.711
-35.283
-31.28
-27.061
-22.457
-17.566
-12.592
-7.5976
-2.0065
4.9197
12.54
18.683
21.74
22.408
23.265
27.01
34.442
43.434
50.159
51.624
47.126
37.855
25.956
14.022
4.6302
-0.5673
-1.6516
-0.3897
0.5395
-1.1465
-5.5161
-9.9135
-11.249
-8.7329
-4.2066
-0.1726
2.3831
4.385
7.5564
13.025
20.094
26.393
29.835
29.884
26.97
21.621
14.253
5.4952
-3.4849
-11.461
-18.14
-24.155
-30.066
-36.157
-42.733
-49.432
-54.786
-56.97
-54.892
-49.296
-42.819
-37.989
-35.09
-32.013
-26.037
-16.067
-3.6736
7.8321
15.813
19.998
21.847
22.975
23.871
23.925
23.227
23.316
25.447
29.166
32.78
34.682
34.324
32.208
29.103
25.444
21.505
17.826
15.186
14.223
15.033
16.839
17.915
16.215
10.699
2.3631
-6.2711
-12.924
-16.852
-18.69
-19.457
-19.843
-19.98
-19.515
-18.294
-16.877
-15.96
-15.802
-16.361
-17.327
-18.085
-18.178
-17.463
-15.787
-12.957
-9.0659
-4.8093
-1.2582
0.8897
1.9861
3.2663
5.596
8.5151
10.798
11.649
10.998
8.9231
5.4157
0.8079
-4.0431
-8.1202
-10.523
-10.431
-7.1807
-0.7602
7.7307
16.359
23.36
28.091
31.272
34.289
37.84
40.947
41.361
37.025
27.479
14.258
-0.1368
-13.572
-24.654
-32.661
-37.584
-40.069
-41.239
-41.882
-41.516
-38.811
-32.773
-23.413
-11.897
-0.6207
6.7499
5.493
-9.7259
-43.748
-97.348
-160.15
-205.36
-197.32
-113.66
34.118
200.85
329.41
378.92
342.68
247.35
135.51
43.328
-13.252
-38.161
-44.723
-44.591
-44.111
-46.9
-55.149
-67.635
-79.39
-85.401
-84.597
-80.085
-75.821
-73.055
-70.013
-64.769
-57.562
-49.892
-42.414
-34.686
-26.154
-16.669
-6.8007
2.2062
9.6905
16.27
22.386
27.519
31.927
37.217
44.086
51.04
55.707
56.372
52.495
44.949
35.948
27.727
21.243
16.495
12.918
9.3019
4.5754
-1.439
-8.1235
-13.999
-16.825
-14.959
-8.6564
0.2417
9.2355
16.107
20.231
22.783
25.253
28.032
30.122
29.707
25.189
16.068
3.4095
-10.259
-21.813
-29.038
-31.975
-32.866
-34.561
-38.641
-44.34
-48.939
-49.835
-46.46
-40.308
-33.834
-29.222
-27.426
-27.873
-28.528
-26.739
-21.077
-12.638
-4.1979
2.2217
6.7627
10.758
15.004
19.205
22.56
24.619
25.655
26.28
27.134
28.723
30.765
32.108
31.784
29.844
27.479
26.168
25.964
25.296
22.849
19.022
15.502
13.496
12.76
12.3
10.835
6.8404
-0.3735
-9.6331
-18.5
-24.955
-28.297
-28.643
-26.295
-21.738
-15.834
-9.8241
-5.4285
-4.5945
-8.0357
-14.259
-20.438
-23.78
-22.755
-17.851
-10.992
-4.3225
0.3612
1.9086
0.486
-2.3306
-4.6116
-5.2745
-4.5332
-3.3808
-2.7269
-2.9069
-3.5334
-3.8573
-3.4429
-2.0927
0.9403
6.7157
15.018
23.755
30.215
32.456
30.144
25.527
23.265
27.122
36.224
45.165
47.486
39.467
22.125
0.5894
-18.637
-31.034
-35.885
-35.323
-32.297
-29.62
-29.232
-31.215
-34.299
-36.839
-36.619
-31.16
-19.349
-3.6153
8.9914
8.738
-13.246
-61.364
-130.37
-199.49
-233.48
-198.09
-83.425
84.278
252.99
369.02
400.22
348.15
244.45
132.66
45.98
-4.6887
-26.617
-33.506
-37.175
-45.264
-60.954
-82.273
-102.53
-114.12
-114.04
-105.69
-94.936
-85.311
-77.1
-69.493
-62.461
-56.56
-51.387
-44.913
-35.024
-21.57
-6.5912
7.1971
17.897
25.012
29.369
32.321
34.968
38.109
41.9
45.737
49.176
51.987
53.245
51.629
46.501
38.12
27.536
16.66
7.6176
1.601
-1.3731
-2.011
-1.6647
-1.9031
-3.254
-4.5868
-4.0204
-0.5737
5.0612
11.417
17.47
22.663
26.175
26.817
23.825
17.523
9.3891
1.7306
-3.4574
-5.8839
-7.0828
-9.6393
-15.895
-25.982
-37.325
-46.628
-52.043
-53.688
-52.702
-50.122
-46.374
-41.428
-35.522
-29.369
-23.564
-18.169
-12.824
-7.0899
-0.8616
5.3871
10.909
15.187
17.842
18.396
16.935
14.912
14.459
16.739
21.056
25.559
28.693
29.629
28.07
24.656
20.766
17.487
15.309
14.33
14.195
14.386
14.668
14.839
14.632
13.946
12.408
9.4122
5.2372
1.0496
-2.131
-4.02
-5.3198
-7.1733
-10.05
-13.437
-16.244
-17.721
-18.289
-18.881
-19.839
-20.774
-20.564
-17.608
-11.327
-3.6563
1.7398
2.3752
-1.1757
-6.4975
-11.464
-14.891
-16.474
-16.456
-14.82
-11.249
-5.6952
1.1409
7.3869
10.863
10.898
8.6024
5.4867
2.5251
0.383
-0.2111
1.5943
6.4822
14.008
22.027
27.631
29.068
27.248
24.934
24.041
24.412
24.895
24.337
21.621
15.676
6.3438
-4.8232
-15.336
-23.512
-29.124
-32.476
-33.717
-33.183
-31.35
-28.089
-22.871
-16
-8.5199
-1.0036
5.7758
8.4993
0.0452
-28.688
-83.074
-156.48
-224.26
-248.21
-195.81
-63.775
113.58
279.25
380.75
393.14
327.53
221.39
117.33
42.986
3.0309
-14.101
-22.846
-32.469
-46.626
-65.275
-85.418
-101.71
-109.16
-106.94
-99.465
-92.582
-88.689
-85.817
-80.828
-72.542
-61.903
-50.343
-38.84
-27.842
-17.384
-7.4495
1.8431
10.431
18.429
25.985
32.996
39.318
45.145
50.455
54.363
55.895
55.068
52.41
47.977
41.623
33.559
24.393
15.136
7.1893
1.9782
0.1785
1.0074
2.5877
3.5159
3.869
4.535
5.9782
7.778
9.231
10.356
11.953
14.004
14.618
11.977
6.5977
0.6831
-3.7788
-6.2739
-7.9774
-10.607
-14.883
-20.094
-24.642
-27.062
-27.188
-26.158
-25.149
-24.546
-24.335
-24.947
-26.941
-29.672
-31.2
-29.94
-26.287
-22.257
-19.461
-18.008
-17.095
-15.685
-12.843
-8.1308
-1.7901
5.5247
12.9
19.022
22.606
23.4
22.151
19.765
17.437
16.821
18.99
23.574
28.972
32.963
33.725
31.056
26.41
21.749
18.755
18.3
19.859
21.792
22.357
20.58
16.595
11.078
4.5079
-2.5074
-9.1194
-15.343
-21.869
-28.255
-32.803
-34.147
-32.058
-27.419
-22.133
-18.504
-17.812
-19.222
-20.478
-19.912
-17.433
-13.708
-9.3861
-5.285
-2.2944
-0.6677
0.2967
1.7596
4.3823
7.7624
10.843
12.832
13.638
13.47
12.271
9.5399
4.7663
-1.9179
-9.4006
-15.428
-16.96
-11.786
-0.336
14.183
27.372
35.622
38.104
37.573
37.909
40.139
41.297
37.126
25.732
9.0622
-8.4319
-22.301
-30.111
-32.199
-30.89
-28.755
-27.402
-27.255
-27.762
-27.748
-26.018
-22.178
-16.824
-10.835
-5.4629
-3.4692
-10.222
-33.982
-81.844
-149.41
-211.96
-229.4
-168.33
-27.595
153.81
314.46
400.98
392.45
306.93
188.14
80.653
9.492
-24.406
-34.75
-36.931
-41.003
-51.485
-68.412
-87.505
-102.33
-108.57
-106.73
-100.85
-94.587
-88.368
-80.403
-69.928
-58.314
-47.145
-36.712
-26.874
-17.995
-10.527
-4.6218
0.119
5.2949
13.04
23.709
35.076
44.271
49.63
50.954
49.458
47.143
45.132
43.065
40.284
36.712
32.847
29.314
26.218
23.213
19.919
15.969
11.351
6.7575
3.1136
0.7664
-0.7846
-2.3137
-4.0805
-5.526
-5.5109
-3.1725
0.9911
5.214
7.8962
8.5947
7.7896
6.1926
4.209
1.9013
-0.6719
-3.449
-6.5926
-10.592
-16.223
-23.717
-31.86
-38.701
-43.103
-45.234
-45.688
-44.574
-41.965
-38.511
-34.738
-30.564
-25.88
-20.575
-14.24
-7.1248
-0.6158
4.2211
7.6765
10.686
13.867
17.303
20.723
23.605
25.533
26.744
27.872
28.851
28.819
27.506
25.654
23.86
22.326
21.411
21.138
20.744
19.691
18.404
17.421
16.419
14.627
11.912
8.7981
5.5242
1.8495
-2.2476
-6.3598
-10.052
-13.231
-16.243
-19.358
-22.148
-23.695
-23.438
-21.721
-19.436
-17.219
-15.375
-14.54
-15.515
-18.091
-20.86
-22.066
-20.305
-15.102
-7.1494
1.7505
8.9845
12.504
12.287
9.973
7.4313
5.9586
5.965
6.8342
7.327
6.1808
2.6205
-2.7942
-7.7172
-9.2914
-6.1232
1.1128
10.338
19.07
25.649
29.978
32.603
33.338
31.721
28.289
24.321
20.467
16.14
10.48
3.4457
-4.4144
-12.48
-19.835
-25.287
-28.435
-30.262
-31.804
-32.66
-31.536
-27.657
-21.037
-12.404
-4.1131
-0.9485
-9.6928
-37.611
-88.51
-155.06
-212.13
-221.84
-154.53
-12.137
165.44
317.43
391.76
369.45
271.01
143.27
34.63
-27.81
-45.487
-37.622
-24.715
-19.35
-26.166
-44.351
-68.41
-89.732
-101.03
-100.49
-91.911
-80.869
-70.588
-61.458
-53.576
-47.824
-44.162
-40.396
-33.533
-22.256
-7.92
6.6614
19.105
28.488
35.056
39.15
40.664
39.559
36.7
33.962
33.1
34.076
34.613
32.083
25.915
18.109
11.711
8.71
8.9378
10.698
12.226
12.498
11.186
8.3648
4.3293
-0.1308
-3.6807
-5.3206
-5.0804
-3.7097
-1.9651
-0.2712
1.1746
2.6259
5.0354
9.1445
14.244
18.591
20.866
20.326
16.285
8.9999
0.428
-7.3303
-13.832
-19.688
-25.065
-29.611
-33.316
-36.914
-41.147
-45.638
-48.924
-49.581
-47.181
-42.346
-36.16
-29.695
-23.817
-19.205
-16.128
-13.659
-9.7016
-2.6528
7.2181
18.202
28.248
35.808
40.474
42.859
43.743
43.574
42.483
39.95
35.067
28.139
21.099
15.923
13.501
13.74
15.931
18.824
20.611
19.657
15.717
10.13
4.5597
-0.3679
-5.0668
-9.922
-14.751
-19.056
-22.202
-23.711
-23.522
-21.855
-19.288
-16.602
-14.053
-11.242
-7.7889
-4.2248
-2.2274
-3.3918
-7.8183
-14.086
-19.947
-23.054
-22.145
-18.081
-13.153
-9.1672
-6.6485
-5.2504
-4.1307
-2.7762
-1.8712
-2.4192
-3.8952
-3.9766
-0.3635
7.2588
17.237
27.473
36.207
42.176
45.566
48.176
51.182
53.276
51.504
43.537
29.522
11.88
-6.3399
-22.047
-32.618
-37.604
-39.146
-40.032
-41.48
-42.704
-42.39
-39.946
-35.38
-28.953
-20.875
-11.101
-0.2883
8.4928
8.7049
-8.7929
-51.08
-114.82
-179.02
-207.46
-166.07
-46.825
120.16
278.01
371.03
371.3
289.72
167.54
53.445
-20.818
-50.834
-51.57
-42.102
-35.493
-37.138
-47.407
-63.412
-79.498
-89.492
-90.594
-85.001
-77.482
-71.576
-67.669
-63.773
-57.645
-48.628
-37.662
-25.655
-13.111
-1.2963
7.9573
14.036
18.47
23.645
30.66
38.506
44.892
47.872
47.055
43.387
38.114
32.167
26.089
20.202
15.057
11.466
9.7052
9.0622
8.3611
6.7494
4.0549
0.7523
-2.3547
-4.7524
-6.3533
-7.0232
-6.4388
-4.2298
-0.1668
5.4912
12.04
18.751
24.799
28.988
30.323
28.94
25.942
22.145
17.312
10.82
2.7219
-6.1129
-14.655
-22.315
-28.98
-34.713
-39.666
-44.018
-47.797
-50.664
-51.839
-50.691
-47.608
-43.965
-40.997
-38.664
-35.733
-30.795
-23.073
-12.668
-0.6498
11.065
20.594
27.064
30.51
31.421
30.829
30.143
30.279
31.258
32.635
33.908
34.466
33.439
30.128
24.756
18.503
13.153
10.534
11.073
13.028
13.985
12.923
10.624
8.5239
7.4518
7.0212
5.4587
0.6614
-7.5445
-16.79
-24.076
-27.628
-27.301
-24.158
-19.746
-15.353
-11.636
-8.6607
-6.4324
-5.4373
-6.1112
-7.8761
-9.3617
-9.5178
-8.4963
-7.5767
-7.825
-9.0466
-10.231
-10.107
-7.5083
-2.3997
3.5213
7.8011
8.78
6.3005
1.6408
-3.1428
-6.5884
-8.6605
-9.8731
-9.9278
-7.5457
-1.4567
8.2586
19.469
28.836
33.737
34.038
32.563
33.124
36.939
41.004
40.535
32.912
19.357
3.5951
-10.615
-21.226
-28.042
-31.666
-32.721
-31.897
-30.172
-28.658
-28.104
-28.461
-28.723
-26.957
-20.982
-10.312
1.4927
6.4853
-4.9351
-40.147
-99.926
-171.51
-224.11
-218.81
-132.65
21.708
197.95
337.92
398.54
369.59
274.83
157.2
57
-5.1882
-31.703
-37.148
-35.482
-35.478
-42.454
-58.187
-78.891
-96.784
-105.46
-104.03
-96.542
-88.036
-81.123
-75.529
-69.84
-63.197
-55.282
-45.647
-34.343
-22.767
-12.684
-4.6543
2.1793
9.3124
17.831
27.317
35.965
42.03
44.559
43.569
40.655
38.393
38.574
41.237
44.85
46.879
44.687
36.989
25.059
12.358
2.5632
-2.5014
-3.2936
-1.5123
1.0544
3.367
5.3577
7.2671
9.22
11.5
14.398
17.55
19.815
19.926
17.415
13.013
8.0174
3.2861
-0.9708
-5.0294
-9.6388
-15.236
-21.157
-26.512
-31.248
-35.441
-38.545
-40.31
-41.461
-42.68
-43.724
-43.636
-41.439
-37.153
-32.073
-27.429
-23.145
-18.264
-12.096
-4.711
3.1876
10.423
15.729
18.409
18.454
16.347
13.431
11.888
13.332
17.529
22.671
26.714
28.724
29.204
29.172
29.294
29.761
30.277
30.287
29.442
27.689
24.987
21.038
15.649
9.6697
4.7195
1.536
-0.7252
-3.5305
-7.6889
-12.765
-17.447
-20.486
-21.415
-20.615
-18.914
-17.193
-16.114
-15.78
-15.678
-15.066
-13.567
-11.456
-9.3617
-7.9441
-7.9945
-10.33
-14.633
-18.547
-19.318
-16.323
-11.087
-5.6861
-1.6581
0.517
1.4636
2.487
4.7769
8.2545
11.429
13.113
13.538
12.935
10.332
5.0634
-1.2778
-5.3751
-4.5195
1.9006
12.43
23.837
31.825
33.439
29.765
25.353
24.283
26.873
29.961
29.899
24.599
13.501
-2.083
-18.404
-30.9
-37.034
-37.421
-34.631
-31.292
-28.973
-28.016
-27.759
-26.9
-23.867
-17.361
-7.5347
2.5708
6.7842
-2.6277
-32.412
-84.888
-152.31
-211.26
-226.29
-168.3
-36.486
135.26
293.22
388.53
397.64
330.12
221.11
112.14
31.33
-14.972
-36.058
-45.025
-51.712
-61.286
-74.725
-89.822
-102.62
-109.74
-111
-109.29
-107
-103.13
-94.696
-80.519
-63.03
-46.272
-32.518
-21.393
-11.723
-3.0441
4.5814
11.23
17.295
23.177
28.924
34.154
38.445
42.041
45.785
49.884
53.214
54.016
50.82
43.444
33.763
24.521
17.232
11.975
8.5023
6.5456
5.4499
4.3059
2.6422
0.7803
-0.5953
-0.9502
0.0179
2.2868
5.347
8.4838
11.239
13.53
15.443
16.872
17.263
15.669
11.463
5.0998
-2.3009
-9.6361
-15.714
-19.413
-20.741
-21.587
-24.555
-30.645
-38.397
-44.985
-48.016
-46.875
-42.644
-37.16
-32.526
-30.417
-30.462
-29.785
-25.235
-16.204
-5.101
4.6824
11.021
13.78
14.368
14.659
15.792
17.761
19.798
21.042
21.136
20.625
20.771
22.184
23.96
24.967
25.119
24.939
24.802
24.853
25.007
24.981
24.435
22.904
20.017
16.15
12.17
8.4133
4.487
-0.0216
-4.9553
-9.7952
-14.227
-17.915
-20.22
-21.117
-21.505
-22.057
-22.817
-23.409
-22.895
-20.399
-16.277
-12.102
-9.3647
-8.4916
-9.26
-11.172
-12.831
-12.167
-8.3455
-2.8404
1.9939
4.76
5.3858
4.8534
4.6704
5.6441
7.263
8.5403
8.9465
8.5734
7.9066
7.6078
8.2212
9.5213
10.275
9.0888
5.1971
-1.2489
-8.6908
-14.278
-15.195
-10.334
-1.0461
9.6173
18.403
23.296
24.558
24.367
24.747
25.638
25.373
22.57
16.937
9.2312
1.1625
-5.4585
-9.9512
-13.064
-16.343
-21.165
-27.523
-33.524
-36.678
-35.659
-30.864
-23.834
-16.154
-8.6229
-1.4965
4.1719
5.0115
-5.0152
-33.121
-83.735
-150.98
-211.43
-227.86
-169.02
-33.501
142.35
300.8
390.94
390.59
313.61
199.96
93.084
19.05
-19.549
-35.129
-41.784
-47.763
-56.194
-67.938
-81.86
-94.412
-101.58
-102.04
-97.825
-91.978
-86.089
-79.774
-72.049
-63.299
-54.876
-46.843
-37.877
-27.119
-15.316
-4.1828
5.7308
15.665
26.124
35.202
40.591
42.013
41.184
40.527
41.767
44.731
47.524
48.079
45.313
39.542
32.477
26.134
21.355
17.693
14.36
10.833
6.9107
2.5334
-2.1252
-6.0782
-7.6969
-5.944
-1.2312
4.5983
9.2747
11.733
12.46
12.207
11.225
9.7724
8.2712
6.731
4.7682
2.1325
-1.3286
-5.9502
-11.877
-18.534
-24.936
-30.257
-33.921
-35.783
-36.39
-36.611
-36.955
-37.26
-36.958
-35.903
-34.587
-33.066
-30.262
-25.083
-18.257
-12.241
-8.6926
-6.7954
-4.4417
-0.1667
6.1783
13.578
20.33
25.119
28.015
29.981
31.551
32.611
33.029
32.791
31.897
30.555
29.142
27.647
25.587
22.717
19.479
16.768
15.218
14.758
15.177
16.154
16.044
12.344
4.316
-6.1112
-16.158
-23.825
-28.067
-28.652
-26.259
-22.192
-17.879
-14.639
-13.127
-12.683
-11.946
-10.175
-7.5837
-4.9115
-3.2537
-3.8879
-7.5512
-13.48
-19.394
-22.784
-22.094
-17.005
-8.4887
1.178
9.1622
13.377
13.389
10.646
7.7063
6.2697
5.9615
5.5696
4.7342
3.57
1.8081
-0.4597
-2.1562
-2.0067
0.3225
3.4737
5.1514
4.0839
0.9089
-2.1848
-2.3575
2.3505
11.436
21.435
27.897
28.939
26.724
25.376
27.292
30.914
32.142
27.642
16.889
2.4412
-11.436
-21.247
-26.108
-27.769
-28.712
-30.114
-31.788
-33.273
-34.453
-35.299
-35.139
-32.654
-26.739
-17.289
-6.1634
1.6606
-1.7585
-24.908
-72.18
-136.81
-194.78
-208.95
-148.12
-11
164.73
318.6
397.87
381.81
288.17
161.36
48.617
-22.41
-50.592
-51.688
-43.601
-37.993
-40.299
-52.096
-70.899
-89.561
-99.63
-97.546
-87.212
-75.576
-66.508
-59.531
-52.777
-45.482
-37.899
-30.47
-23.73
-18.123
-13.641
-9.7006
-5.2496
0.6646
8.1903
16.607
24.754
31.609
36.87
40.744
43.196
43.927
42.657
39.287
34.209
28.184
22.04
16.749
13.11
11.369
11.461
12.988
14.661
14.401
10.764
4.3255
-2.5566
-7.2569
-8.4373
-6.3308
-1.7405
4.4463
10.863
15.773
17.984
17.588
15.858
14.161
12.687
10.617
7.3232
2.779
-2.8716
-9.4809
-16.656
-23.659
-29.669
-34.44
-38.635
-43.022
-47.679
-52.005
-54.621
-53.739
-48.721
-40.859
-32.323
-24.907
-19.496
-15.716
-12.05
-6.9939
-0.1359
7.8413
15.902
23.312
29.544
34.018
36.467
37.423
37.803
37.915
37.34
35.401
31.35
25.066
18.073
12.911
10.942
11.439
12.911
14.351
15.416
16.404
17.682
18.572
17.442
13.371
7.2517
1.1065
-3.552
-6.8813
-10.298
-14.828
-20.042
-24.425
-26.859
-27.855
-28.568
-28.806
-27.427
-24.171
-19.71
-14.625
-9.4471
-5.1433
-2.7702
-2.6135
-3.8707
-5.2305
-5.828
-5.8041
-5.6886
-5.3924
-4.3677
-2.2939
0.8587
5.0597
9.8768
13.846
15.097
12.982
8.6766
4.232
1.3839
0.7739
1.5389
1.8685
0.5419
-2.0454
-4.1623
-3.6846
0.8199
9.0613
18.706
26.461
30.243
30.704
30.193
30.078
29.808
28.179
24.509
18.71
10.801
1.0215
-9.5509
-19.477
-28.008
-35.014
-40.438
-44.198
-46.123
-45.752
-42.448
-35.904
-26.405
-14.716
-2.1809
8.7095
13.507
5.5882
-22.187
-72.956
-138.48
-193.46
-201.51
-135.16
2.6684
172.47
314.45
378.76
349.58
249.4
124.56
21.109
-36.849
-52.793
-45.911
-34.91
-29.973
-33.783
-45.297
-61.125
-75.666
-83.624
-83.503
-78.027
-71.128
-64.773
-58.427
-50.902
-42.457
-34.71
-28.533
-23.147
-17.361
-10.64
-3.338
3.226
7.6553
9.9585
11.566
14.343
19.795
28.15
37.752
45.458
48.109
44.457
36.164
27.013
20.637
18.19
17.911
16.93
13.366
7.4045
1.1321
-3.0271
-4.0239
-2.3918
0.6091
3.677
5.9077
7.1016
7.6905
8.513
10.632
14.74
20.202
24.731
25.654
22.094
15.674
9.0081
3.927
0.8334
-1.029
-3.1028
-7.0173
-13.663
-22.417
-31.525
-39.235
-44.622
-47.71
-49.043
-49.12
-48.054
-45.658
-41.782
-36.573
-30.551
-24.533
-19.27
-14.901
-10.992
-7.2578
-3.519
0.8997
6.6961
13.676
20.62
25.928
28.63
29.065
28.475
27.93
27.913
28.737
30.57
33.027
35.341
36.569
35.513
31.272
24.257
16.551
10.86
8.6259
9.2285
10.879
11.714
10.372
6.4624
0.5949
-6.3713
-13.691
-20.134
-24.011
-24.681
-23.336
-21.422
-19.104
-16.151
-13.22
-11.356
-11.061
-12.101
-13.456
-13.844
-12.887
-11.293
-10.092
-9.901
-10.25
-9.9351
-8.6158
-7.2415
-6.5695
-6.1791
-4.8967
-1.7884
2.7345
6.8038
8.8003
8.7867
7.8385
7.0081
7.1024
8.2007
9.0592
7.9124
4.6072
1.4497
1.1138
4.2136
9.523
15.524
20.912
24.625
26.557
28.085
30.905
34.66
36.242
32.174
21.54
6.5257
-9.2354
-22.414
-30.945
-34.694
-35.244
-34.361
-32.901
-31.125
-29.089
-26.468
-22.907
-18.747
-14.274
-8.6307
-1.2083
5.7547
6.5675
-6.325
-39.629
-94.809
-161.36
-212.27
-211.19
-133.65
11.662
181.25
317.97
378.38
350.44
256.52
140.8
45.363
-9.562
-27.735
-25.158
-17.994
-17.083
-27.166
-47.281
-71.725
-92.424
-102.75
-101.34
-92.768
-83.648
-77.769
-74.431
-70.609
-63.887
-53.776
-41.452
-28.681
-16.942
-7.2667
0.0063
5.6807
11.191
17.344
23.929
30.274
35.694
39.752
42.343
43.466
43.147
41.585
38.989
35.413
31.183
27.267
24.698
23.54
22.525
19.492
12.668
2.5713
-7.4005
-13.099
-12.729
-7.8735
-1.6487
3.579
7.0267
9.0656
10.207
10.717
11.006
11.464
11.861
11.553
10.148
7.6688
4.5214
1.5589
-0.3823
-1.3898
-2.8712
-6.7529
-13.87
-22.967
-31.48
-37.616
-41.441
-43.769
-44.786
-44.207
-42.278
-40.139
-38.777
-37.818
-35.739
-31.075
-23.573
-14.331
-4.7453
4.0284
10.695
14.182
15.082
15.912
19.065
24.888
31.765
37.166
38.835
36.363
31.853
28.225
26.812
26.856
26.776
25.391
22.466
18.762
15.469
13.425
12.851
13.276
13.56
12.588
9.9624
5.7337
0.0513
-6.6141
-13.601
-20.366
-26.084
-29.22
-28.267
-23.339
-16.706
-11.421
-9.5238
-10.934
-13.275
-13.622
-11.224
-8.001
-6.4636
-7.6085
-10.451
-12.981
-13.482
-11.42
-7.5956
-3.5107
-0.4448
1.1297
1.7434
2.5301
4.2782
6.9519
9.6929
11.204
10.854
9.1248
6.8466
4.6765
2.8601
0.6903
-2.9695
-7.7781
-11.448
-11.682
-7.7397
-0.3211
9.0499
18.632
27.035
33.326
37.187
39.215
39.928
38.48
33.441
24.339
12.01
-1.6226
-14.062
-23.232
-28.408
-30.694
-32.056
-33.238
-33.43
-32.024
-29.628
-27.381
-25.654
-23.117
-17.378
-7.5812
3.0793
7.1263
-4.8631
-40.179
-98.919
-168.12
-218.63
-213.89
-131.96
15.955
187.28
327.3
392.94
370.96
282.13
168.11
68.924
5.6924
-22.4
-29.037
-29.061
-32.469
-44.08
-64.117
-88.116
-108.56
-119.13
-118.42
-109.82
-98.204
-86.852
-77
-68.907
-62.231
-55.565
-46.763
-34.732
-20.74
-7.3573
3.7397
12.553
19.881
26.498
32.696
37.853
41.164
42.866
43.852
44.632
45.187
45.294
44.762
43.278
40.386
35.806
29.755
23.148
17.209
12.591
8.7255
4.3226
-1.0248
-6.3293
-10.077
-10.794
-7.5925
-1.0042
6.9934
14.195
19.483
22.755
23.744
21.569
15.854
7.9317
0.1507
-5.9444
-10.147
-12.733
-14.163
-15.328
-17.092
-19.863
-23.768
-28.553
-33.36
-37.131
-39.478
-40.831
-41.549
-41.324
-39.648
-36.292
-31.236
-24.958
-18.581
-13.024
-8.5766
-5.1143
-1.9497
1.4891
4.6224
6.6918
8.3813
11.396
16.63
23.013
28.205
30.471
29.642
26.701
23.387
21.811
23.391
27.918
33.399
36.896
36.46
32.488
27.069
22.338
19.396
17.851
15.893
11.583
4.6002
-3.6147
-11.204
-16.902
-20.36
-22.331
-24.228
-26.754
-28.967
-29.02
-25.772
-19.66
-12.595
-7.1067
-4.9518
-6.031
-8.5134
-10.277
-10.402
-9.3712
-8.1342
-7.0163
-5.4697
-2.9596
0.066
2.3818
3.0554
2.0911
0.3523
-0.9439
-0.9877
0.3608
2.8481
5.5104
6.4352
4.2217
-0.366
-4.9977
-7.7106
-8.0175
-6.7651
-5.1464
-3.3797
-0.1753
6.0988
15.455
25.515
32.904
35.937
35.973
35.662
36.14
36.213
33.609
26.648
15.445
2.0526
-10.685
-20.701
-27.405
-31.314
-33.44
-34.795
-35.855
-36.317
-35.494
-32.837
-27.985
-20.808
-11.76
-2.4091
3.9208
1.6017
-16.716
-57.124
-119.02
-187.92
-232.16
-213.97
-114.17
49.483
227.09
360.43
409.63
369.68
269.46
153.98
60.599
4.4842
-19.855
-26.996
-30.108
-37.048
-51.016
-71.43
-93.667
-110.38
-116.43
-113.08
-105.98
-99.421
-93.398
-85.469
-74.26
-61.199
-49.15
-39.559
-31.462
-23.145
-13.877
-3.8338
6.8482
17.761
27.226
33.168
35.357
36.15
38.698
44.326
51.57
57.236
58.333
54.006
46.172
37.985
31.475
26.606
22.242
17.412
11.926
6.3273
1.0952
-3.7456
-7.6552
-9.0938
-6.9426
-1.8702
4.1985
9.6291
13.928
17.166
19.168
19.725
18.908
16.843
13.611
9.3706
4.5011
-0.5374
-5.609
-10.869
-16.548
-23.079
-30.803
-39.141
-46.439
-50.933
-51.923
-50.108
-47.026
-43.971
-41.147
-37.765
-32.858
-26.148
-18.51
-11.88
-8.1888
-7.5393
-7.6562
-5.6477
-0.0309
8.626
17.854
24.436
26.826
26.351
25.58
26.042
27.717
29.886
31.733
32.47
31.761
30.274
29.113
28.424
27.152
24.202
19.657
15.154
12.94
14.055
16.96
18.152
14.778
6.4318
-5.2964
-17.588
-27.009
-31.139
-29.921
-24.849
-17.728
-10.867
-6.8137
-6.6535
-9.0593
-11.501
-12.414
-11.984
-11.087
-10.365
-10.341
-11.453
-13.673
-16.326
-18.218
-17.997
-14.741
-8.8079
-2.2311
2.5257
4.5504
4.9503
5.4308
6.82
8.8283
10.477
10.637
8.8249
5.711
2.6035
0.2428
-1.7467
-3.7548
-4.754
-2.8389
2.8328
10.929
18.362
22.183
21.949
20.426
21.484
26.712
33.937
38.828
37.748
29.697
16.54
1.8473
-10.882
-19.845
-25.352
-28.763
-31.261
-33.47
-35.704
-38.003
-39.471
-38.394
-33.679
-25.251
-13.505
-0.2541
9.621
7.97
-14.513
-63.182
-132.13
-198.3
-224.34
-175.78
-45.682
132.84
299.32
395.89
394.46
307.42
178.44
58.691
-18.304
-47.69
-45.986
-35.356
-31.478
-39.756
-57.904
-79.969
-98.624
-107.36
-103.97
-92.244
-79.137
-69.309
-62.112
-54.43
-45.378
-36.727
-30.108
-25.221
-20.436
-14.645
-7.8823
-0.0729
9.5021
20.811
31.987
40.322
44.263
44.35
42.355
39.974
38.314
37.581
36.694
34.045
28.995
22.259
15.353
9.8985
6.9675
6.4808
6.9603
6.6365
5.1848
3.6089
2.5418
1.7184
0.8784
0.1293
-0.2307
0.2871
2.112
5.1538
8.4072
10.213
9.9713
9.3328
10.088
11.489
11.313
8.5582
3.9489
-1.1243
-5.6195
-9.4924
-13.585
-18.617
-24.373
-30.167
-35.682
-40.828
-45.146
-47.924
-48.787
-47.837
-45.454
-41.998
-37.358
-31.001
-22.962
-14.488
-7.0995
-1.2618
3.6097
8.1281
12.362
16.409
21.06
27.125
34.126
40.23
43.457
43.007
39.695
34.936
29.677
24.518
20.125
17.344
16.929
18.959
22.336
24.907
24.7
21.223
15.569
9.6313
4.7225
0.8422
-2.5382
-5.7001
-8.8019
-11.839
-14.474
-16.544
-18.361
-20.135
-21.61
-22.542
-23.053
-23.244
-22.844
-21.623
-19.618
-16.691
-12.913
-9.7645
-9.5857
-12.96
-17.424
-19.401
-16.95
-10.729
-3.0855
3.5381
7.8631
10.329
12.298
14.179
14.904
13.65
11.002
7.6921
3.3283
-2.6978
-9.6398
-14.751
-14.159
-5.4108
9.9684
26.494
38.105
42.369
41.81
41.15
42.837
44.964
43.501
35.949
22.645
5.8419
-11.29
-25.291
-33.682
-36.584
-36.731
-37.246
-39.361
-42.199
-44.065
-43.439
-39.334
-31.568
-20.756
-8.377
2.3779
6.0615
-4.296
-35.186
-87.953
-151.23
-196.96
-189.38
-106.56
40.331
206.71
335.17
383.03
341.39
237.04
116.39
20.563
-32.562
-49.245
-47.094
-41.608
-40.777
-46.518
-57.767
-71.559
-82.991
-87.468
-84.074
-75.812
-66.678
-58.873
-52.371
-46.597
-41.865
-38.702
-36.128
-31.798
-24.392
-15.094
-6.344
0.4147
5.7329
11.32
18.36
26.614
34.705
40.946
44.371
45.072
43.417
39.765
35.062
30.659
27.367
24.943
22.524
19.599
16.31
12.91
9.639
6.8679
4.4451
1.44
-2.6255
-6.9706
-10.278
-11.479
-9.9965
-5.8549
0.6737
9.1777
18.281
25.703
29.633
29.563
26.128
20.333
12.802
4.0741
-4.7484
-12.466
-18.797
-24.576
-30.775
-37.297
-42.979
-46.494
-46.925
-44.213
-39.647
-35.593
-33.914
-34.284
-34.809
-34.05
-31.268
-26.113
-19.332
-12.308
-5.7988
0.1862
5.9787
11.826
17.624
23.181
28.207
31.988
33.854
34.057
33.681
33.698
34.183
34.187
32.579
29.286
25.606
23.154
22.335
22.008
20.621
17.261
12.264
7.2832
3.9964
2.7591
2.6872
2.2156
-0.3744
-5.7716
-12.689
-18.929
-23.196
-25.225
-25.098
-23.122
-19.905
-16.563
-14.604
-14.754
-16.322
-18.054
-18.831
-17.826
-14.891
-10.595
-5.6725
-0.8462
2.9895
4.9798
5.0272
4.1343
3.4309
3.2228
3.3274
3.5763
3.9304
4.4994
5.3491
6.3425
6.9917
6.3633
3.9308
0.5516
-2.3605
-4.4095
-6.0595
-7.0066
-5.6617
-1.079
5.1584
10.159
12.499
13.164
14.499
18.807
26.976
37.045
44.114
43.211
33.084
16.861
-0.4125
-14.161
-21.717
-23.314
-21.744
-20.4
-21.26
-24.173
-27.653
-30.19
-30.914
-29.544
-25.597
-17.907
-6.7432
3.1567
2.9837
-16.438
-60.314
-125.17
-193.62
-233.49
-209.77
-107
55.156
227.44
354.02
398.08
356.72
258.9
148.06
59.485
6.3408
-18.054
-27.776
-34.037
-42.749
-56.21
-73.799
-91.465
-103.34
-105.91
-100.7
-92.775
-86.573
-82.553
-78.157
-71.369
-62.421
-52.699
-43.133
-33.761
-24.43
-15.21
-5.9575
3.7138
13.837
23.686
31.869
37.091
39.099
39.063
38.989
40.306
42.975
46.065
48.645
49.777
48.327
43.353
34.814
24.145
13.992
6.8292
3.5262
2.8176
2.1159
-0.3984
-4.2316
-7.207
-7.2481
-3.5617
3.1938
11.177
17.923
21.481
21.344
18.3
13.672
8.7741
4.6077
1.3051
-1.985
-6.2062
-11.716
-18.152
-24.368
-28.891
-30.839
-30.658
-30.167
-31.425
-35.073
-39.874
-43.775
-45.225
-43.935
-40.72
-36.288
-30.464
-23.184
-15.697
-9.9744
-6.9802
-5.5799
-3.2591
1.9771
10.554
21.264
31.342
37.718
39.204
37.078
33.651
30.783
29.349
29.14
28.967
27.517
24.463
20.788
18.02
17.042
17.582
18.559
18.847
17.882
15.436
11.379
6.0862
0.5155
-4.1505
-7.0089
-8.4811
-10.357
-14.125
-19.956
-26.574
-31.32
-31.534
-26.49
-17.891
-8.9345
-2.8932
-1.528
-4.0986
-8.1464
-11.448
-13.12
-13.295
-12.462
-11.179
-9.9924
-9.268
-8.9513
-8.65
-7.9458
-6.3069
-3.1332
1.5471
6.922
11.982
15.82
17.825
18.008
16.961
15.387
13.678
11.805
9.4515
6.4107
3.0629
-0.1471
-3.7114
-8.3975
-13.646
-17.426
-17.472
-12.491
-2.8158
9.4372
20.923
28.664
31.793
31.876
31.479
32.064
32.888
31.638
25.993
15.154
0.3819
-15.71
-30.21
-40.774
-46.221
-46.628
-42.985
-36.752
-29.572
-23.117
-18.482
-15.018
-10.153
-1.5468
9.5947
17.314
13.07
-11.172
-59.797
-128.35
-197.72
-234.5
-204.34
-94.459
71.808
242.74
362.86
397.98
348.37
245.32
132.52
43.481
-10.435
-35.219
-41.657
-37.949
-30.468
-25.685
-28.492
-39.632
-56.188
-74.5
-92.526
-109.89
-125.75
-137.24
-140.95
-135.65
-122.98
-105.4
-84.144
-59.523
-32.778
-6.5905
16.741
36.645
53.537
67.528
77.815
83.06
82.58
77.056
68.317
58.979
51.869
48.731
49.053
50.271
49.173
43.311
31.823
16.002
-0.8799
-15.388
-26.038
-33.556
-39.263
-43.297
-44.275
-40.266
-30.036
-13.909
6.0237
26.291
42.796
52.098
52.829
45.872
33.73
20.237
9.4691
3.7658
2.9734
5.0732
7.0928
5.9736
-0.6857
-13.575
-30.79
-48.837
-64.462
-75.089
-78.74
-74.609
-64.079
-50.848
-39.089
-31.194
-26.824
-23.403
-17.992
-9.4489
0.9139
10.482
17.161
20.624
22.114
23.033
24.071
25.56
27.742
30.325
32.305
32.712
31.524
29.67
28.196
27.667
27.662
26.446
22.181
14.867
6.6159
0.2416
-2.0396
0.7439
7.5397
15.101
19.871
20.183
16.305
9.4642
1.2005
-7.1708
-14.399
-19.197
-21.309
-21.751
-21.486
-20.86
-20.137
-19.484
-18.298
-15.452
-11.069
-7.8239
-9.3636
-16.764
-26.793
-33.743
-32.956
-23.326
-7.1571
11.687
29.174
42.381
50.516
53.35
48.798
34.391
11.81
-11.918
-28.773
-34.671
-30.553
-20.26
-8.0557
2.8142
10.943
16.985
23.01
31.249
41.913
51.397
53.759
44.554
23.383
-5.8676
-36.508
-62.365
-80.625
-91.341
-95.193
-91.909
-80.429
-61.185
-37.883
-16.186
-0.4707
8.4896
12.668
13.727
11.999
8.9338
8.887
17.264
36.832
63.979
87.222
91.846
69.485
25.225
-23.907
-58.02
-64.94
-46.828
-19.549
-4.9896
-20.597
-70.55
-140.49
-198.19
-203.88
-130.05
17.924
196.27
341.82
404.13
369.95
266.76
145.13
50.976
4.6043
-1.6361
10.388
20.756
18.648
1.0116
-30.519
-70.248
-108.22
-133.47
-140.01
-130.16
-112.27
-95.37
-85.032
-83.058
-88.646
-98.898
-108.72
-111.64
-102.65
-81.352
-52.481
-23.545
-1.3797
11.037
15.854
18.146
22.299
30.534
43.141
57.843
70.011
76.293
77.849
78.244
79.056
79.247
77.204
71.52
61.417
48.469
37.009
30.855
29.618
28.837
22.854
8.1711
-13.357
-34.671
-48.116
-49.635
-40.198
-25.416
-12.06
-3.5107
0.3058
-0.4156
-6.392
-17.228
-29.453
-36.881
-34.053
-20.545
-1.6348
15.47
25.764
27.642
21.956
10.786
-3.3198
-17.206
-26.782
-28.032
-19.823
-6.4741
4.2112
7.9227
7.5652
7.5453
6.582
-0.6326
-16.212
-35.613
-50.645
-55.082
-47.484
-30.18
-8.3642
10.247
18.947
16.835
8.9914
2.0899
0.9229
7.3609
18.996
29.294
32.231
27.334
19.915
16.501
19.45
25.567
29.704
30.008
28.911
27.933
24.806
17.578
7.449
-3.0664
-11.468
-15.441
-14.503
-12.637
-16.98
-30.687
-48.318
-59.632
-55.919
-34.593
-3.3098
21.747
27.081
11.511
-14.314
-34.394
-36.98
-23.862
-9.0309
-5.1045
-12.14
-20.208
-19.611
-7.245
13.424
35.428
52.373
61.302
62.109
55.257
40.804
19.369
-5.7702
-28.092
-41.203
-42.663
-33.441
-16.284
4.2772
23.648
39.13
48.883
50.895
44.358
30.801
13.16
-5.098
-20.642
-32.088
-40.7
-48.444
-55.844
-61.67
-63.064
-55.847
-38.141
-14.5
6.8983
21.028
28.087
31.618
36.625
46.482
59.254
67.418
61.098
32.187
-21.834
-94.679
-168.92
-216.08
-204.57
-117.86
29.005
190.38
310.43
349.31
300.37
191.44
69.926
-21.814
-66.923
-75.232
-67.253
-58.889
-56.769
-60.397
-65.947
-70.13
-72.253
-72.578
-70.283
-65.388
-60.787
-59.495
-60.906
-60.576
-53.869
-40.983
-27.091
-16.436
-8.4269
1.1631
17.584
43.782
77.184
108.54
124
111.67
67.996
-3.0035
-94.321
-195.71
-287.95
-342.02
-330.96
-245.72
-100.42
76.03
252.83
403.14
504.79
546.2
535.45
500.31
474.77
480.83
518.21
567.86
604.15
606.01
562.49
474.19
350.91
206.48
56.961
-76.55
-171.68
-220.33
-240.96
-272.38
-350.02
-480.1
-632.95
-762.1
-831.42
-829.55
-771.68
-700.71
-687.82
-812.18
-1112.8
-1549.5
-2014.1
-2388.6
-2605.6
-2663
-2590.8
-2409.1
-2110.5
-1672
-1084.3
-375.55
398.61
1194.9
2011.8
2866.8
3729.5
4484.2
4990.4
5197
5178.3
5042.7
4797
4291.2
3307.1
1734.2
-299.62
-2421.6
-4137.9
-5038.9
-4983
-4139.2
-2873.3
-1572.7
-516.37
172.91
514.85
622.98
636.97
655.42
699.79
729.36
691.65
567.64
381.42
177.74
-4.9494
-146.32
-243.06
-305.61
-353.88
-407.52
-474.34
-545.91
-604.78
-637.67
-643.37
-629.11
-601.11
-561.01
-509.09
-446.99
-378.36
-307.64
-237.87
-170.66
-108.25
-53.764
-8.585
29.243
63.611
98.16
134.14
168.7
196.4
213.52
220.87
223.52
228.33
239.65
256.45
274.2
288.6
296.56
294.57
279.05
249.95
212.59
175.23
143.98
118.33
91.526
56.928
14.435
-29.329
-65.915
-89.652
-99.685
-99.734
-95.916
-92.956
-91.454
-89.084
-83.736
-76.236
-71.757
-77.28
-96.755
-130.39
-178.35
-241.36
-312.99
-369.42
-371.19
-284.37
-107.48
119.71
334.25
479.85
528.44
487.51
394.96
300.78
241.94
227.11
241.61
263.43
274.1
261.02
217.61
145.72
57.47
-29.408
-102.27
-161.03
-215.2
-273.35
-335.6
-393.99
-436.5
-451.77
-434.84
-390.47
-331.56
-275.23
-236.39
-218.96
-213.07
-202.57
-174.51
-123.37
-51.671
30.304
107.72
168.5
209.12
233.22
245.87
249.75
245.09
232.09
213.43
194.24
179.96
173.84
176.02
184.27
195.01
203.22
202.3
186.51
155.2
112.98
65.541
17.529
-27.382
-66.643
-97.964
-118.11
-124.38
-117.79
-104.32
-92.427
-88.124
-91.771
-98.84
-103.28
-101.12
-92.366
-79.665
-64.433
-45.712
-24.071
-5.0663
2.5968
-7.4062
-33.606
-65.886
-91.403
-101.27
-92.483
-68.72
-40.778
-21.449
-16.99
-23.188
-28.626
-21.587
4.3175
46.961
94.821
131.71
146.3
138.11
115.93
92.315
77.8
76.038
82.3
87.156
83.057
68.784
48.589
28.046
11.318
1.0793
-2.3092
-2.3491
-4.2746
-10.897
-21.874
-35.998
-53.34
-75.584
-103.36
-133.55
-161.05
-182.37
-195.73
-199.5
-192.34
-173.09
-139.72
-90.769
-28.786
38.778
102.59
155.46
193.41
213.82
214.85
197.49
167.32
132.94
101.5
74.647
47.961
14.559
-28.577
-76.738
-119.45
-146.09
-150.55
-132.82
-98.614
-56.349
-12.971
26.415
56.617
74.793
84.313
92.813
105.37
119.03
124.21
112.08
81.288
39.938
1.3905
-24.148
-35.762
-41.076
-50.202
-68.624
-93.637
-116.54
-128.47
-125.71
-111.54
-93.779
-79.266
-69.289
-60.094
-46.795
-26.361
1.2555
32.793
62.784
86.022
98.676
96.912
76.082
32.826
-31.708
-108.2
-174.34
-196.13
-144.41
-17.702
150.24
304.96
395.93
398.2
322.35
206.74
95.504
17.111
-23.098
-36.415
-38.77
-41.646
-50.397
-66.496
-88.36
-111.98
-135.04
-161.01
-195.95
-239.13
-277.28
-290.34
-264.26
-199.73
-110.36
-14.005
75.178
148.95
202.71
232.8
236.46
215.14
177.6
137.97
108.59
93.305
86.626
78.565
61.21
33.538
1.1663
-29.199
-54.641
-75.488
-91.779
-101.29
-100.7
-88.503
-67.653
-45.48
-29.746
-24.265
-27.579
-33.737
-35.152
-27.219
-10.972
8.0511
22.839
27.833
21.036
5.048
-13.728
-27.63
-30.852
-22.307
-6.4606
9.4341
20.173
25.532
29.044
34.765
44.523
56.039
63.516
61.142
46.269
20.51
-10.354
-38.23
-55.994
-59.727
-50.053
-33.169
-19
-15.706
-24.998
-42.024
-58.522
-66.7
-62.783
-48.945
-31.603
-16.343
-4.3577
6.1187
16.936
29.717
45.994
65.435
84.213
95.786
93.823
76.296
48.504
20.824
1.8431
-6.2978
-6.7048
-3.2149
2.8247
11.424
20.803
27.66
30.283
29.431
27.084
25.237
23.623
18.36
5.7552
-12.807
-31.373
-43.246
-44.257
-35.445
-23.754
-18.604
-25.89
-43.596
-62.618
-72.465
-67.48
-49.713
-26.731
-6.372
6.4745
10.565
8.5951
4.7668
0.5255
-5.0082
-10.898
-13.507
-9.3807
1.8479
16.392
28.143
33.05
32.082
28.837
24.924
19.516
11.889
2.5982
-5.789
-8.2952
-0.6166
15.704
32.44
40.563
37.178
27.157
18.798
17.105
20.467
23.464
21.333
11.752
-4.333
-22.116
-35.707
-42.667
-43.961
-40.024
-30.489
-17.79
-7.5612
-4.2003
-6.9824
-11.37
-13.743
-13.872
-13.691
-15.91
-24.176
-43.435
-78.913
-131.23
-187.21
-216.07
-182.26
-69.94
99.835
273.84
391.25
412.8
339.22
209.9
80.219
-8.6522
-45.941
-46.058
-32.361
-23.434
-27.909
-45.428
-69.31
-89.836
-98.811
-94.512
-82.987
-72.725
-67.697
-66.086
-63.87
-58.373
-49.935
-41.28
-34.812
-30.056
-23.898
-13.651
-0.0164
12.709
19.029
15.644
4.5066
-5.9403
-4.4556
14.207
43.505
69.197
79.455
72.265
54.848
37.294
26.653
24.369
26.754
28.254
25.512
18.874
11.008
4.1922
-1.3396
-5.8247
-7.9112
-6.1253
-1.581
2.5472
3.5654
0.2923
-6.5992
-13.944
-17.21
-13.217
-2.5322
10.231
19.988
25.256
27.29
26.501
21.672
12.17
-0.3839
-12.673
-21.176
-23.624
-20.589
-15.853
-14.437
-20.085
-34.244
-56.105
-82.165
-105.22
-115.42
-105.91
-79.244
-46.818
-20.677
-5.3308
3.2266
11.863
24.32
39.166
51.822
58.868
61.191
62.605
65.159
67.046
65.195
58.088
46.309
32.01
17.793
5.9441
-1.1993
-1.3587
5.5835
15.002
19.104
13.297
0.4101
-11.536
-14.778
-6.4966
9.2692
23.787
28.758
21.106
5.2157
-9.6123
-16.512
-16.04
-13.622
-14.116
-18.975
-27
-36.941
-48.12
-58.265
-62.852
-58.279
-44.848
-25.684
-4.5056
14.167
25.07
25.262
17.015
6.2903
-1.8403
-5.5872
-5.0027
-0.5529
5.5468
8.7719
5.7864
-2.6293
-13.128
-21.619
-23.591
-15.933
1.0357
23.758
46.685
63.919
71.732
70.574
64.27
56.119
45.624
30.272
9.9905
-11.711
-30.076
-41.62
-45.328
-42.408
-35.198
-26.272
-18.25
-13.263
-11.866
-13.275
-16.334
-18.947
-17.801
-11.04
-1.8325
1.0826
-13.163
-52.038
-113.33
-178.71
-214.41
-187.03
-86.069
65.343
219.47
325.85
353.12
302.07
204.29
103.53
30.555
-8.374
-23.779
-29.059
-33.742
-43.027
-57.163
-71.619
-80.703
-81.654
-75.946
-68.369
-64.719
-68.05
-75.844
-80.956
-76.279
-60.13
-38.335
-20.954
-15.031
-19.04
-24.063
-20.544
-5.042
17.389
36.567
44.929
43.265
38.542
37.331
42.084
50.864
57.647
54.907
40.02
19.246
3.5103
0.2054
9.1762
24.679
39.231
46.536
43.415
30.533
11.925
-6.4286
-19.277
-24.285
-21.862
-14.478
-6.4738
-2.2818
-3.2742
-7.2137
-11.572
-15.86
-19.813
-21.302
-17.185
-5.7692
10.562
25.134
31.313
27.457
17.444
7.3309
1.0276
-2.4973
-7.69
-17.556
-30.953
-44.311
-54.684
-61.153
-64.326
-64.818
-62.45
-56.94
-48.179
-35.565
-18.909
-0.9289
12.869
18.705
18.247
17.099
20.649
30.676
43.934
53.757
54.401
45.755
34.135
26.938
26.183
28.008
28.411
27.595
27.323
26.633
22.859
15.339
6.2263
-1.3885
-4.8901
-3.1881
1.7793
5.5125
4.1924
-2.5242
-11.543
-18.522
-20.685
-18.625
-15.142
-12.214
-9.6613
-5.9618
-0.1339
5.9123
7.2386
-0.3169
-16.016
-34.349
-48.722
-54.545
-50.314
-37.732
-20.529
-2.4408
12.989
21.517
19.728
8.0558
-8.0266
-19.783
-19.978
-8.1101
9.4048
24.78
33.659
34.887
28.232
14.701
-1.2063
-12.518
-14.7
-8.6544
1.181
10.308
16.293
19.821
24.066
31.516
41.312
50.084
54.459
52.218
42.216
25.075
4.4145
-14.204
-26.994
-34.74
-41.723
-51.55
-63.483
-72.281
-71.528
-58.572
-37.44
-16.061
0.1513
11.344
19.249
20.706
6.595
-31.939
-95.284
-169.26
-223.32
-219.54
-134.29
21.128
199.86
340.93
398.27
361.75
260.22
143.71
54.87
9.4292
-3.386
-5.6113
-13.442
-29.999
-50.42
-70.103
-87.034
-99.534
-105.2
-103.64
-99.671
-100.18
-106.36
-111.86
-108.67
-93.552
-69.353
-42.024
-17.304
1.1448
13.1
20.935
25.989
27.735
27.193
27.571
30.593
34.843
38.199
40.4
42.716
45.712
48.024
47.43
43.212
37.427
33.162
31.356
30.394
28.429
24.669
19.48
14.217
10.027
6.5805
2.3195
-3.7151
-10.268
-15.293
-18.73
-21.492
-22.438
-19.418
-12.621
-4.7497
1.2403
3.9665
4.9121
7.9231
15.53
25.596
32.493
31.605
22.454
7.7675
-9.2906
-26.466
-42.29
-55.49
-64.725
-69.457
-70.627
-69.057
-63.819
-53.918
-40.662
-26.927
-15.068
-6.0193
0.7708
6.5101
11.478
14.409
13.985
11.201
9.6655
13.066
22.121
33.635
42.97
47.995
49.986
50.341
48.081
41.758
31.815
20.113
9.1596
2.2142
1.9726
7.8239
15.562
20.984
22.843
21.921
18.631
12.335
3.1424
-6.9223
-16.161
-24.977
-34.055
-42.559
-48.508
-49.723
-44.658
-33.142
-16.82
0.2876
12.445
15.787
11.453
4.1314
-1.7882
-4.4208
-4.262
-3.1669
-3.3363
-5.8726
-9.7623
-12.838
-13.397
-10.778
-5.453
0.9933
6.4781
9.3143
8.6191
4.7052
-0.5655
-4.8399
-7.0167
-7.3362
-6.1213
-3.546
-0.5229
1.3628
1.2417
0.0449
0.1268
3.8355
12.248
24.881
39.704
52.765
59.187
56.688
47.526
35.363
21.883
8.0042
-3.9336
-11.337
-13.499
-11.615
-8.3663
-8.1703
-15.252
-29.229
-43.761
-51.704
-51.125
-45.386
-38.621
-32.408
-26.245
-20.334
-19.332
-33.769
-73.994
-138.8
-207.08
-240.65
-202.64
-82.692
91.51
266.23
386.85
421.85
375.18
278.96
171.87
81.125
17.199
-22.543
-46.591
-61.63
-70.035
-74.024
-78.715
-87.81
-98.504
-104.78
-105.01
-103.18
-102.96
-103.94
-103.57
-99.788
-89.992
-70.85
-42.721
-12.197
11.902
24
24.491
19.572
17.321
22.093
32.618
44.13
51.175
50.544
43.329
34.205
28.55
28.716
31.736
31.983
26.943
19.552
14.791
14.829
17.714
19.682
17.885
12.055
5.3781
3.5236
10.638
25.111
39.705
46.013
39.807
23.896
5.9094
-7.17
-12.351
-10.252
-4.3745
-1.4805
-8.8921
-27.847
-50.479
-65.122
-64.408
-48.497
-23.076
3.9209
25.503
38.173
41.752
36.983
24.499
5.7702
-16.255
-37.369
-53.228
-61.721
-64.721
-66.611
-70.176
-73.808
-73.188
-65.129
-48.962
-26.494
-2.6068
16.665
28.605
35.629
42.649
52.677
63.957
71.033
69.436
59.548
45.884
33.879
27.705
29.336
37.614
47.485
51.648
44.928
27.685
5.4793
-14.251
-26.337
-30.298
-29.3
-27.114
-25.687
-24.194
-20.375
-13.652
-6.3242
-1.2683
0.4353
-0.4709
-2.5627
-5.0909
-8.6456
-13.771
-18.946
-21.103
-18.915
-15.088
-13.882
-16.594
-21.053
-23.912
-22.026
-14.369
-3.6244
5.8138
11.345
13.386
14.516
17.869
24.303
30.451
31.347
24.711
12.015
-3.1193
-16.805
-25.886
-28.424
-24.469
-15.864
-4.7358
6.6235
14.735
16.433
11.697
3.7848
-2.4809
-2.5794
5.65
20.891
38.54
52.199
56.739
51.04
38.184
22.667
7.0255
-8.2208
-22.445
-34.757
-44.821
-52.022
-54.833
-52.329
-45.517
-36.694
-27.902
-19.264
-8.8896
4.202
16.698
21.192
9.3671
-25.626
-85.991
-161.46
-222.58
-227.91
-148.38
7.9342
192.92
341.84
405.27
370.58
264.43
136.79
34.151
-22.324
-39.484
-37.446
-33.56
-36.785
-49.414
-69.033
-89.775
-104.8
-109.61
-104.22
-92.451
-78.975
-66.212
-53.143
-38.117
-23
-11.625
-4.6666
0.1176
2.9298
0.1619
-12.337
-34.707
-60.28
-76.895
-72.577
-41.639
12.267
76.803
135.57
174.84
187.81
174.82
141.12
93.236
36.744
-22.482
-76.685
-117
-136.25
-132.07
-107.84
-70.867
-29.361
9.8592
42.33
65.381
77.164
76.959
66.274
49.069
30.996
17.722
12.111
12.334
13.948
13.826
11.15
6.2323
0.461
-3.6097
-4.0605
-1.8765
-0.9171
-5.334
-16.489
-31.677
-46.009
-55.727
-59.487
-57.698
-52.4
-46.963
-43.393
-39.886
-33.159
-23.16
-13.43
-7.1193
-4.5448
-4.121
-3.9107
-2.55
-0.6964
-1.5374
-7.6276
-16.951
-23.288
-20.511
-6.7388
14.267
35.183
49.597
55.522
55.709
55.206
57.513
62.046
65.183
63.534
55.647
41.457
22.968
5.2791
-5.907
-7.8255
-2.0583
5.5788
7.7305
0.77
-11.961
-22.949
-27.285
-26.339
-25.122
-27.708
-34.549
-42.052
-44.706
-38.806
-24.986
-8.0024
5.6973
11.552
9.4035
2.3862
-5.9843
-12.53
-14.274
-10.692
-5.2955
-2.5814
-3.5968
-5.5384
-5.5521
-3.9724
-3.3878
-5.3146
-8.2997
-9.2834
-7.2503
-5.194
-7.0419
-12.394
-16.005
-13.126
-3.5838
9.4078
22.279
33.491
44.469
57.297
71.337
82.409
84.216
71.977
47.252
17.953
-8.0061
-27.817
-42.236
-51.14
-52.899
-47.675
-39.068
-31.79
-28.273
-27.531
-26.982
-24.948
-20.918
-14.109
-3.7745
7.9072
13.998
4.6238
-29.083
-88.981
-161.11
-211.91
-201.18
-108.88
45.807
210.89
327.81
358.63
301.44
189.43
72.876
-7.7647
-40.033
-37.49
-22.944
-12.993
-14.761
-29.731
-54.608
-80.649
-97.667
-100.32
-90.365
-73.924
-57.195
-44.191
-36.676
-34.158
-33.721
-31.765
-26.904
-20.18
-12.617
-4.1872
4.8843
13.047
18.436
20.932
22.538
25.07
27.791
28.602
26.897
23.718
20.666
19.311
19.766
20.309
19.472
17.075
13.029
7.2591
1.4684
-0.9661
2.1473
10.086
19.822
27.323
29.422
25.506
17.492
8.2707
0.3781
-4.5599
-6.4801
-6.4682
-4.7583
-0.0631
8.1381
17.383
23.198
22.206
14.954
5.9349
-0.5977
-4.3064
-6.7687
-8.178
-8.2272
-8.1544
-10.353
-16.531
-26.195
-36.949
-46.495
-53.417
-56.094
-53.502
-47.68
-42.434
-39.2
-36.577
-33.28
-29.227
-24.326
-18.115
-10.312
-0.8322
10.102
21.043
28.6
28.963
22.002
13.623
12.117
21.751
40.175
60.103
72.235
69.648
52.829
30.378
13.301
7.5607
11.195
17.903
22.836
24.671
23.725
19.937
12.926
3.475
-5.9572
-12.591
-14.798
-12.588
-7.7547
-3.9763
-5.3281
-13.034
-23.736
-32.015
-35.107
-34.766
-34.453
-35.598
-36.734
-35.042
-28.576
-18.039
-6.594
2.0499
5.313
2.6453
-3.7505
-9.4418
-10.219
-3.8394
9.6647
26.611
39.274
40.266
28.27
9.4408
-6.6701
-13.999
-13.826
-11.974
-13.035
-16.724
-18.224
-12.449
0.908
16.553
28.493
35.499
40.534
45.925
50.784
52.158
47.951
38.913
27.746
16.48
4.3948
-11.036
-30.041
-48.565
-61.59
-66.43
-62.573
-51.661
-37.928
-25.866
-16.931
-9.1964
-0.5452
7.4922
8.9308
-4.0535
-37.315
-90.912
-154.77
-205.29
-209.78
-143.05
-6.7988
163.78
313.22
391.81
378.41
288.16
163.73
53.824
-10.713
-27.946
-17.713
-4.9992
-6.3679
-26.207
-59.659
-96.111
-123.17
-132.13
-122.62
-103.4
-86.49
-77.939
-74.894
-71.336
-64.282
-54.279
-42.565
-29.321
-15.181
-3.2259
3.2632
4.9234
6.3255
11.964
22.782
35.861
46.817
52.373
51.698
47.198
43.398
43.049
44.855
45.941
45.071
42.65
38.528
30.586
16.724
-1.4143
-17.898
-25.788
-21.088
-5.561
13.126
25.19
24.294
11.249
-6.4385
-19.529
-22.434
-14.735
0.0634
16.399
29.117
35.688
35.879
29.131
14.472
-5.28
-21.874
-27.735
-22.92
-14.302
-8.9214
-9.2694
-14.268
-22.203
-31.267
-39.373
-45.343
-49.299
-51.258
-50.401
-46.077
-38.729
-29.863
-21.602
-15.973
-13.896
-14.41
-14.862
-12.374
-5.7898
3.6952
13.723
22.055
27.552
31.292
35.81
42.258
48.736
51.755
49.196
41.444
30.736
20.748
15.042
14.627
17.306
18.828
15.41
6.9194
-2.7414
-9.5294
-12.527
-12.577
-9.9034
-4.1948
4.229
13.547
20.494
21.382
13.989
0.0877
-14.313
-22.801
-22.867
-16.218
-6.5851
1.1165
1.6711
-7.0571
-21.507
-34.988
-43.17
-45.82
-43.899
-37.362
-26.518
-13.912
-2.8394
5.3873
11.303
16.01
21.02
27.456
34.406
38.356
34.673
21.552
3.2737
-12.141
-18.723
-16.016
-8.5602
-2.0386
0.6684
-0.7728
-5.9293
-12.555
-15.788
-11.223
1.3302
18.259
35.37
48.709
53.581
46.385
28.35
6.2367
-11.335
-18.204
-12.903
-0.0515
10.249
8.1281
-8.6321
-32.63
-51.666
-56.009
-43.838
-22.029
-1.243
11.291
14.853
12.185
4.5287
-11.84
-45.498
-103.06
-177.3
-239.89
-249.88
-177.63
-27.825
157.34
317.43
402.34
394.41
313.97
205.17
110.57
50.848
21.743
6.2479
-10.473
-34.44
-64.398
-95.086
-119.55
-132
-130.54
-118.3
-103.02
-93.942
-95.794
-105.24
-113.36
-111.33
-94.801
-64.73
-26.851
8.4987
30.623
36.334
31.273
23.396
18.073
18.058
24.633
37.542
53.63
66.542
70.302
64.111
52.849
43.487
40.742
43.188
43.526
35.659
21.157
7.3063
0.0494
-0.5611
0.7021
-1.21
-7.5369
-14.88
-17.605
-11.898
0.3825
12.346
18.451
18.995
17.312
14.944
10.924
4.4971
-2.93
-8.8789
-11.57
-9.7394
-2.2462
9.926
21.578
25.358
16.402
-4.6974
-31.446
-54.026
-64.62
-61.521
-48.813
-33.176
-21.23
-17.897
-24.598
-38.224
-52.617
-62.107
-63.935
-57.632
-43.737
-24.344
-3.6428
14.055
26.595
33.916
37.025
37.572
37.648
38.848
40.947
42.263
42.27
42.647
44.307
45.001
41.429
32.355
18.953
3.7884
-9.2031
-14.97
-10.461
1.6874
14.702
23.622
27.995
29.37
28.589
25.633
20.46
12.995
3.1463
-8.0366
-18.019
-24.799
-28.826
-32.168
-36.259
-40.646
-43.524
-43.459
-40.515
-35.773
-30.148
-23.947
-17.72
-12.791
-9.8497
-7.5014
-3.498
2.6981
9.5447
15.596
20.994
26.064
29.216
27.697
20.323
8.8168
-2.7854
-9.9406
-10.407
-5.9322
-0.8012
1.1
-1.4646
-6.4764
-10.625
-12.044
-10.767
-6.8696
0.7033
11.991
24.41
35.428
43.783
47.513
45.017
37.73
29.105
21.503
14.836
7.8319
-0.1438
-8.7499
-17.352
-25.196
-30.832
-32.642
-30.482
-25.343
-18.187
-10.945
-7.0311
-9.2935
-17.961
-29.713
-38.351
-39.161
-34.718
-35.105
-52.144
-92.834
-151.55
-203.35
-209.54
-139.44
5.5451
185.82
341.24
420.13
402.86
308.42
181.38
67.796
-5.6738
-38.129
-45.036
-43.554
-44.779
-54.13
-72.618
-96.042
-115.86
-123.73
-116.88
-100.14
-82.103
-68.864
-61.4
-57.898
-56.209
-53.876
-47.686
-34.55
-14.278
8.1061
25.174
32.688
31.088
23.633
15.092
10.269
12.076
20.935
34.767
48.336
54.736
50.665
39.745
29.113
23.274
21.758
21.417
19.837
17.049
14.993
15.611
18.57
20.46
17.719
10.75
4.2326
2.629
4.9026
4.3448
-5.1073
-22.087
-37.858
-43.196
-34.756
-15.399
8.9611
31.251
44.764
46.466
38.936
28.029
18.873
13.615
10.795
6.2807
-3.3294
-17.764
-34.111
-48.93
-58.634
-61.351
-59.642
-58.33
-59.285
-60.709
-60.762
-58.992
-54.846
-47.613
-37.49
-25.037
-10.655
4.3182
17.589
27.499
33.295
34.976
34.424
34.805
37.763
42.378
46.4
48.008
47.063
44.821
42.746
41.16
38.501
32.859
24.177
14.462
6.8617
4.5842
8.8005
16.533
21.998
20.874
13.09
2.2056
-7.8304
-15.347
-20.613
-24.729
-29.287
-35.268
-41.335
-43.541
-37.663
-23.241
-5.3616
8.3944
12.141
3.5943
-14.63
-34.776
-47.277
-45.792
-30.385
-7.5003
13.45
25.162
25.695
17.746
5.9195
-5.1923
-12.471
-14.965
-13.033
-7.7372
-1.079
4.505
7.6578
8.9342
9.56
10.071
11.204
14.356
19.134
22.31
21.316
17.717
16.387
21.49
32.523
43.981
49.147
44.423
31.499
15.912
2.1126
-9.5256
-20.405
-30.674
-38.815
-42.573
-40.745
-35.042
-29.343
-26.217
-24.904
-23.17
-20.423
-18.431
-19.266
-24.259
-36.074
-59.922
-99.655
-148.74
-183.09
-168.41
-83.295
60.191
217.29
333.15
371.02
327.9
230.58
118.38
24.335
-35.99
-64.072
-70.095
-64.89
-57.009
-52.955
-56.67
-67.663
-80.845
-90.208
-92.623
-87.912
-77.079
-61.423
-43.203
-26.476
-15.335
-10.324
-7.7238
-3.517
2.3515
6.3558
5.5162
1.2459
-0.5214
5.4163
17.527
28.788
33.834
32.636
28.462
25.278
25.937
30.201
34.56
34.794
28.597
16.647
2.7906
-7.3731
-9.6664
-3.5846
7.5632
18.033
22.13
17.122
5.6034
-5.3971
-9.866
-7.2998
-1.2436
4.8121
9.8025
15.01
21.902
30.211
37.823
41.013
35.679
20.613
-0.6618
-21.923
-37.271
-42.583
-36.465
-21.46
-4.4345
5.6057
2.1501
-15.434
-42.387
-70.571
-90.201
-93.285
-78.051
-50.29
-20.533
0.8974
8.5546
4.0298
-5.4422
-11.426
-9.846
-3.41
2.0624
3.5676
2.9955
4.5016
10.389
19.165
27.343
32.672
35.815
39.463
45.256
51.199
52.999
48.413
39.431
30.185
23.925
21.38
20.794
19.729
16.97
12.8
7.9474
2.5512
-3.4038
-9.0192
-12.946
-14.49
-13.928
-12.805
-13.265
-16.05
-20.431
-25.584
-29.977
-31.17
-28.349
-23.445
-19.124
-17.089
-17.906
-21.036
-24.829
-26.494
-22.729
-11.94
3.7464
19.163
28.874
30.241
25.062
17.403
9.8612
3.3885
-1.2431
-4.3751
-8.1633
-14.207
-21.034
-24.253
-18.667
-1.895
22.144
43.992
54.211
49.342
33.833
17.129
7.9644
9.3846
18.085
27.355
30.556
24.433
10.906
-4.7727
-18.289
-29.094
-38.645
-46.112
-48.172
-43.619
-35.448
-27.744
-22.631
-19.719
-16.524
-9.9208
0.842
10.623
8.0381
-18.969
-74.313
-146.2
-204.77
-211.13
-139.24
3.4162
174.65
317.21
384.88
361.95
268.22
146.79
41.1
-24.471
-49.593
-48.918
-38.763
-30.483
-31.862
-46.752
-70.522
-91.461
-100.25
-96.982
-88.957
-82.981
-79.668
-74.093
-61.61
-43.994
-29.185
-23.464
-25.41
-29.059
-29.875
-25.745
-15.706
-0.263
18.393
37.162
52.777
63.109
67.737
66.021
56.899
42.063
26.534
15.448
11.519
14.375
20.576
24.475
21.636
13.036
4.4374
0.8122
2.0013
3.4572
0.75
-5.9903
-11.877
-11.61
-3.6541
8.7635
19.617
24.247
22.472
17.741
14.009
13.164
14.642
17.083
19.146
18.758
13.732
3.7899
-8.653
-19.638
-25.858
-26.549
-23.555
-19.849
-18.226
-20.605
-26.841
-34.437
-41.726
-50.293
-61.571
-72.579
-77.272
-71.279
-54.764
-32.258
-10.813
2.9934
6.5881
3.0735
-1.1118
-0.6837
5.9021
17.318
31.784
47.504
61.161
68.646
68.057
60.745
48.906
33.704
17.557
5.9398
3.6504
10.14
19.818
26.317
26.745
22.792
18.117
15.087
13.472
11.235
6.5848
-0.415
-7.4735
-10.993
-9.0235
-4.1151
-1.8851
-6.3675
-16.978
-29.337
-38.793
-43.178
-42.611
-38.248
-31.936
-25.873
-21.598
-18.92
-16.069
-11.742
-6.6206
-1.7962
2.7298
6.7097
9.1491
9.9589
10.133
9.7376
7.2934
2.2255
-3.6285
-7.8554
-9.0467
-6.5324
-0.691
6.2976
11.53
13.528
12.998
11.846
11.631
12.708
14.741
18.482
26.324
39.295
54.266
65.698
68.327
57.564
31.38
-6.0879
-44.125
-69.504
-73.457
-57.466
-32.233
-10.668
-1.2296
-5.3005
-17.885
-30.702
-37.055
-34.744
-24.923
-10.271
4.8573
13.242
4.8936
-29.94
-94.154
-174.76
-239.23
-246.5
-170.18
-17.874
168.17
329.29
415.59
406.82
320.09
198.46
86.959
11.878
-24.987
-37.102
-40.011
-44.437
-55.587
-73.609
-93.702
-108.9
-115.08
-112.99
-106.12
-97.37
-87.35
-75.846
-64.078
-54.014
-45.841
-37.564
-27.496
-16.17
-5.4236
3.7299
11.904
19.732
25.889
27.937
25.416
21.345
19.752
22.099
27.529
35.041
42.821
48.192
50.801
52.713
54.486
53.878
48.077
35.964
19.226
1.7897
-11.836
-17.995
-15.596
-6.896
4.128
13.526
18.303
17.632
13.21
7.5803
1.6531
-6.0108
-16.26
-26.081
-30.18
-25.613
-13.624
3.0795
22.195
38.883
44.994
35.58
14.313
-9.5155
-27.71
-36.819
-38.055
-35.48
-33.188
-32.987
-34.413
-36.761
-41.36
-50.598
-63.563
-74.52
-76.471
-65.448
-43.109
-16.797
4.3396
15.142
16.967
15.376
16.469
23.914
36.566
48.773
54.712
52.719
45.494
37.757
33.686
34.374
37.331
39.155
37.991
33.585
27.04
20.229
13.718
6.8994
0.7432
-2.3787
-1.467
2.3134
6.6645
9.195
8.3999
4.4055
-1.0144
-5.6736
-9.2341
-13.666
-20.335
-27.855
-33.504
-35.09
-31.874
-25.642
-20.19
-18.364
-20.145
-23.7
-27.08
-28.757
-27.434
-21.992
-12.218
-0.1451
9.761
13.097
9.1219
1.6301
-3.971
-4.0033
2.4243
13.41
24.101
28.62
24.623
15.303
5.8585
-0.9087
-5.0218
-6.8338
-5.5243
-0.2346
8.0397
16.658
23.625
28.169
29.016
25.161
18.955
15.483
18.209
26.207
34.911
39.303
36.697
26.052
7.2113
-16.654
-39.129
-55.279
-63.941
-65.496
-60.187
-48.917
-33.892
-18.152
-5.2003
2.0624
3.6603
3.3727
5.7267
10.967
12.669
0.1454
-36.51
-99.997
-177.77
-238.74
-244.57
-171.67
-27.874
147.47
299.96
384.37
384.05
315.14
214.59
120.32
54.571
18.64
0.5486
-13.02
-30.065
-53.107
-80.279
-105.56
-121.06
-122.49
-113.12
-101.13
-92.585
-87.567
-82.135
-73.076
-61.216
-50.68
-45.17
-44.85
-46.058
-43.809
-34.857
-18.884
1.6617
22.925
41.999
56.999
65.216
63.826
53.351
39.49
29.988
29.05
35.767
46.558
55.758
56.374
45.271
26.77
9.6911
1.2085
2.3145
8.224
12.889
12.821
8.2054
2.1505
-1.8305
-2.7022
-2.454
-3.6916
-6.3174
-7.0768
-3.2166
4.1215
10.448
11.371
6.1622
-1.4824
-6.0427
-3.6876
5.5452
17.642
26.161
25.131
12.712
-7.1173
-27.018
-40.936
-46.905
-46.584
-43.391
-41.15
-42.944
-48.987
-55.718
-58.688
-55.661
-46.453
-32.349
-16.93
-4.9359
1.3075
3.0411
2.8433
3.1669
6.3375
13.194
21.441
27.302
28.822
26.856
24.239
24.259
28.392
35.333
42.222
46.48
46.958
44.152
39.635
34.886
30.099
24.048
15.683
6.2458
-0.9239
-3.2378
-1.0573
2.7783
4.7843
2.6087
-3.9576
-13.375
-23.215
-30.828
-34.252
-32.729
-26.54
-16.844
-5.9743
1.9398
2.1975
-6.5259
-20.135
-31.712
-35.114
-27.581
-12.052
3.1677
9.3267
3.1536
-11.054
-24.332
-28.694
-21.537
-6.3149
10.007
21.425
26.555
27.629
26.184
21.396
12.586
1.8965
-6.5095
-9.6559
-7.2039
-0.8325
5.7493
7.8933
4.1561
-1.6648
-4.3109
-1.8945
3.0421
6.2716
5.927
3.8731
3.8582
9.6611
22.839
39.41
50.622
50.245
40.04
25.971
11.947
-0.9332
-12.922
-24.299
-33.369
-37.486
-36.574
-33.279
-30.39
-29.503
-30.405
-30.23
-25.159
-14.543
-2.152
5.9633
2.8458
-18.395
-61.756
-124.02
-189.57
-227.99
-203.71
-98.841
67.616
243.63
369.6
406.93
354.2
244.12
122.94
26.484
-31.373
-55.702
-60.318
-57.653
-54.287
-53.008
-55.861
-63.459
-73.418
-82.008
-87.322
-90.034
-90.747
-87.559
-77.851
-62.43
-46.099
-33.153
-23.372
-13.671
-2.9625
6.3832
11.449
11.451
8.556
7.3672
11.715
20.906
30.732
37.801
41.062
40.133
35.025
27.975
23.044
22.956
27.517
34.094
38.514
37.175
29.622
19.253
11.415
9.5476
12.64
16.269
15.177
6.0228
-9.6195
-25.282
-34.279
-33.803
-24.732
-10.324
4.264
13.413
13.742
6.7559
-0.9192
-1.3822
9.0299
27.284
45.567
55.102
50.197
31.266
4.5083
-21.523
-40.163
-49.888
-54.308
-57.926
-62.014
-65.449
-67.596
-68.011
-64.771
-55.741
-42.235
-29.357
-20.52
-13.929
-6.3532
2.0523
7.7401
8.2945
6.5312
8.3384
16.462
27.95
37.678
42.905
44.006
42.808
41.088
39.373
36.742
32.253
27.137
25.36
30.371
40.604
49.237
49.079
38.015
19.532
-1.7489
-22.816
-40.141
-48.312
-43.091
-25.487
-2.6217
15.87
23.243
18.644
6.1791
-8.4847
-20.925
-28.453
-30.154
-27.439
-23.065
-18.936
-15.852
-14.597
-15.546
-17.833
-19.829
-20.552
-20.677
-21.066
-19.779
-12.614
2.0155
19.608
31.841
32.482
21.905
7.0331
-2.885
-2.1454
7.3708
17.413
19.507
11.091
-3.4048
-16.842
-23.893
-21.915
-10.76
6.3973
24.101
37.625
44.246
42.654
33.316
19.693
7.6063
2.0576
4.1696
10.69
15.679
13.453
2.4933
-12.773
-25.152
-29.729
-26.91
-22.174
-21.51
-25.776
-30.385
-30.777
-26.765
-20.906
-14.552
-7.1797
1.26
7.7224
4.6846
-17.501
-63.792
-127.06
-185.11
-205.96
-161.73
-45.998
115.31
269.97
363.5
366.84
289.03
169.19
55.714
-16.337
-39.218
-30.318
-16.085
-14.903
-30.34
-55.158
-78.809
-92.845
-93.727
-84.053
-71.641
-64.813
-65.904
-69.296
-66.934
-55.989
-40.78
-28.063
-21.624
-21.042
-23.742
-26.679
-26.52
-20.457
-8.0022
8.3875
24.468
36.685
44.556
50.541
57.389
65.3
71.436
71.57
62.11
42.772
18.7
-1.5401
-11.779
-12.298
-7.7929
-2.5832
0.8525
1.1264
-1.1245
-2.5787
0.3421
7.7739
15.421
17.978
14.007
7.7554
6.0498
12.62
24.983
36.322
40.204
34.254
20.385
3.5174
-9.6327
-13.911
-9.8929
-3.4919
-1.1865
-6.5965
-20.216
-39.474
-58.501
-70.103
-70.732
-63.678
-55.727
-51.051
-48.984
-46.18
-40.093
-31.132
-21.79
-14.014
-8.3309
-5.0283
-4.0131
-3.7541
-2.3456
1.6166
10.01
23.749
39.522
50.791
52.647
45.207
33.665
25.38
25.37
33.087
42.729
47.199
42.627
30.066
14.708
3.4771
1.4458
8.9143
20.863
29.956
31.661
26.863
19.277
10.937
1.123
-10.825
-23.38
-33.955
-40.389
-40.924
-35.31
-26.734
-19.973
-16.895
-16.14
-16.943
-20.23
-25.921
-31.21
-32.319
-27.721
-19.07
-9.3255
-0.9354
4.6296
7.4064
9.3816
12.457
15.491
15.18
10.22
3.5494
0.1704
3.018
10.868
19.012
21.951
17.539
8.8192
0.7618
-3.9591
-5.6767
-6.4843
-8.6957
-12.301
-14.372
-13.091
-10.346
-8.0168
-4.5495
2.8448
14.248
25.851
32.696
32.67
28.227
25.042
27.979
36.825
45.559
46.47
35.981
16.466
-6.6507
-27.711
-41.672
-45.776
-42.158
-37.155
-36.266
-39.817
-43.218
-40.55
-29.185
-12.453
2.6829
10.888
11.724
7.8052
-1.4542
-23.965
-70.018
-139.63
-211.75
-246.9
-207.41
-83.798
93.596
267.55
381.79
406.24
347.79
242.36
134.09
53.98
9.7629
-9.1238
-18.839
-31.355
-51.408
-77.264
-103.08
-122.24
-130.09
-125.76
-113
-98.2
-86.29
-78.129
-71.428
-63.499
-53.442
-42.009
-30.004
-18.104
-7.7682
-0.005
6.6624
14.991
25.645
35.851
41.699
41.67
37.283
31.216
26.447
25.544
28.261
31.155
31.572
30.482
30.297
32.181
36.175
41.004
43.001
38.268
26.8
12.686
0.8217
-5.4896
-6.2147
-5.2071
-7.3032
-13.564
-19.543
-19.317
-11.424
0.1352
9.9396
14.836
14.524
10.365
4.5249
-0.2821
-1.6467
1.5251
8.9949
18.708
25.909
25.309
15.417
-0.3157
-16.576
-30
-40.539
-49.328
-55.863
-58.752
-59.048
-60.652
-66.311
-73.943
-77.654
-72.013
-55.519
-31.088
-4.1698
19.118
33.403
36.403
30.423
21.184
15.36
17.724
28.245
41.93
52.536
56.083
51.99
42.768
31.87
21.21
11.854
6.4495
8.3912
17.778
29.86
38.459
40.963
39.683
37.745
34.907
28.481
16.884
1.4129
-14.515
-27.002
-33.182
-32.635
-27.601
-21.529
-17.166
-15.615
-17.135
-22.069
-30.16
-39.608
-47.539
-51.327
-49.464
-41.686
-28.978
-13.703
0.8393
11.93
19.064
23.596
26.279
26.04
22.059
15.56
8.2557
0.985
-5.2577
-9.2295
-10.393
-8.0701
-1.2375
8.6716
16.606
17.606
11.071
1.0166
-7.1966
-10.031
-6.2265
3.4469
15.547
25.298
29.26
25.459
13.261
-4.145
-19.03
-23.599
-15.795
-0.8986
13.155
22.409
27.761
30.642
31.219
29.839
26.815
21.041
11.048
-2.3144
-15.657
-25.849
-31.739
-33.241
-30.96
-27.241
-25.637
-28.293
-33.989
-38.167
-35.302
-23.056
-4.9124
10.416
11.594
-11.258
-61.673
-132.53
-203.07
-240.44
-211.93
-105.62
57.331
230
360.45
413.3
383.14
293.89
184.49
88.872
22.719
-15.818
-36.777
-50.108
-61.959
-74.815
-89.158
-103.55
-114.31
-118.29
-115.69
-108.64
-98.759
-87.976
-79.106
-73.38
-68.689
-61.025
-47.697
-30.271
-14.181
-4.3351
-1.1709
-0.51
3.5294
14.345
30.154
45.298
54.489
56.453
54.452
53.325
54.584
54.508
49.085
39.822
32.318
30.608
34.274
38.876
38.339
28.945
12.33
-5.2722
-16.994
-19.532
-14.529
-6.3514
1.147
6.0013
8.2772
9.8051
11.763
11.814
6.3891
-3.7729
-13.623
-18.556
-16.066
-5.4491
10.197
23.268
26.284
17.933
4.0097
-7.7548
-13.548
-14.511
-14.206
-16.182
-21.763
-29.36
-37.088
-45.179
-54.408
-63.352
-68.867
-68.298
-60.775
-48.261
-35.415
-26.809
-23.436
-21.988
-17.956
-8.9389
4.5882
19.789
32.512
39.937
43.227
46.363
52.153
60.026
66.847
68.99
64.396
54.27
42.854
33.633
26.396
20.121
15.639
12.45
7.0093
-2.9753
-15.449
-25.788
-29.223
-22.55
-6.6029
12.485
26.14
28.637
20.302
6.3225
-8.0467
-21.612
-35.416
-47.924
-55.662
-57.732
-55.887
-50.971
-41.904
-27.814
-10.116
6.9627
17.637
18.159
10.457
1.0571
-4.273
-4.1487
-0.6728
3.6263
7.8816
12.301
16.857
21.317
24.857
25.543
21.708
14.04
5.5329
-1.2789
-6.2771
-10.272
-12.656
-11.399
-5.159
4.2086
11.373
11.421
3.9003
-7.4425
-16.717
-17.585
-6.3724
14.325
35.044
44.028
35.657
16.231
-0.121
-3.0634
6.6659
20.337
28.434
25.66
12.886
-3.9521
-18.046
-26.598
-31.657
-35.926
-38.95
-38.041
-32.326
-24.428
-17.413
-11.656
-6.0247
-0.893
1.2059
-3.2177
-16.868
-39.523
-68.717
-103.59
-142.65
-173.06
-167.81
-101.91
24.987
180.38
312.62
376.57
355.65
268.13
154.43
54.361
-10.852
-42.452
-54.379
-59.861
-64.803
-69.73
-74.089
-77.762
-80.373
-80.966
-79.07
-75.513
-71.351
-66.582
-60.468
-53.299
-47.118
-42.873
-37.866
-29.128
-18.246
-9.58
-4.3808
0.5839
8.8515
20.056
29.663
33.194
31.331
29.872
33.525
40.405
43.959
40.034
30.939
23.089
21.987
28.224
36.629
40.176
35.165
22.929
8.5357
-2.495
-8.3091
-11.04
-12.914
-13.924
-12.909
-8.9731
-2.1802
5.7418
11.399
11.449
4.9242
-5.5899
-14.335
-14.859
-4.3297
14.027
32.883
45.401
48.948
44.844
35.396
21.706
3.5081
-18.776
-42.081
-61.404
-71.828
-71.061
-62.058
-52.389
-49.049
-53.173
-59.581
-61.114
-53.773
-38.999
-21.479
-4.7791
9.8191
20.946
26.221
24.459
18.202
12.976
12.77
16.373
18.912
17.225
13.689
13.881
20.432
30.358
37.474
36.516
27.398
16.731
12.872
18.793
30.728
42.083
47.644
45.931
38.413
27.342
15.63
7.146
4.3861
5.5426
5.3936
-0.3449
-11.684
-24.763
-35.257
-41.239
-42.94
-41.478
-39.116
-38.557
-39.748
-39.411
-34.779
-25.587
-12.945
1.19
13.314
18.975
16.151
8.1439
1.4673
0.8213
6.28
13.959
18.54
15.983
5.3751
-10.826
-27.413
-37.937
-38.291
-29.293
-15.337
-1.6194
7.6009
10.036
6.5993
2.12
3.1261
13.123
29.983
47.521
58.933
60.613
54.909
48.364
45.573
44.392
37.748
20.976
-2.7645
-25.012
-39.166
-44.006
-41.849
-36.255
-31.04
-28.686
-28.938
-29.909
-30.342
-29.998
-28.437
-24.085
-14.86
-0.9529
12.963
18.549
6.2254
-31.239
-93.275
-165.43
-216.89
-209.8
-122.45
29.933
197.57
322.32
366.43
325.79
226.65
111.47
19.299
-30.711
-42.493
-32.8
-18.827
-12.144
-18.226
-36.583
-60.391
-79.752
-88.399
-87.475
-82.581
-77.823
-73.042
-65.514
-53.68
-39.838
-28.898
-24.253
-25.231
-27.671
-26.515
-19.499
-8.8214
1.7865
10.441
17.287
23.781
31.764
41.218
49.541
54.111
54.292
50.035
40.622
26.996
13.854
6.961
8.4568
15.551
23.043
26.2
22.294
11.456
-3.1787
-16.981
-26.463
-30.427
-28.944
-22.28
-11.043
2.8543
16.14
26.58
34.921
42.706
48.967
50.807
46.615
37.899
28.035
18.639
8.0273
-5.3497
-19.642
-30.701
-35.481
-35.207
-35.211
-40.436
-51.461
-64.19
-72.355
-71.537
-62.622
-51.316
-43.111
-39.037
-36.21
-31.044
-22.535
-13.265
-6.3227
-1.7361
2.5485
7.4006
12.16
16.504
20.878
25.829
32.213
41.108
52.164
62.211
66.312
61.002
47.249
30.785
18.571
13.57
13.563
14.618
13.818
10.052
4.7423
1.3185
2.5978
8.203
14.707
18.609
18.89
16.688
12.91
6.1286
-6.8225
-26.949
-49.486
-65.447
-67.588
-54.906
-32.461
-9.2352
4.8317
4.8591
-4.5802
-14.04
-17.754
-15.931
-11.185
-5.7857
-1.7853
-1.3836
-5.3307
-11.267
-14.771
-11.87
-0.8613
16.459
34.258
44.765
43.264
31.125
14.388
1.0747
-2.7817
1.597
6.0857
3.3424
-7.5583
-22.107
-33.458
-35.611
-26.669
-9.9599
7.6148
19.377
23.182
21.999
20.384
21.542
26.266
32.316
35.736
34.477
29.716
22.829
13.511
1.9253
-9.7857
-19.149
-25.798
-31.814
-39.015
-46.825
-53.194
-55.207
-48.797
-31.459
-6.6513
16.346
27.751
21.421
-5.5186
-53.742
-119.07
-186.09
-225.12
-202.73
-103.96
52.182
218.41
341.61
386.35
347.67
250.44
135.72
40.615
-16.097
-35.662
-31.778
-21.208
-17.328
-26.878
-48.786
-75.815
-99.222
-113.23
-116.36
-110.33
-98.54
-84.53
-70.789
-58.996
-51.084
-48.04
-47.144
-42.891
-32.178
-16.989
-1.1488
13.306
25.775
35.143
39.551
38.683
35.706
34.983
37.914
42.242
44.67
43.068
37.186
28.566
19.76
13.51
12.08
15.777
21.971
26.985
28.767
27.209
23.103
17.141
9.1973
-1.3192
-13.968
-25.862
-32.27
-29.836
-19.311
-5.2648
6.5653
13.493
18.46
26.253
36.724
43.915
41.576
28.73
11.283
-2.1647
-6.9929
-5.0587
-2.3357
-4.7808
-14.912
-30.794
-47.202
-58.865
-64.129
-64.937
-63.864
-62.628
-62.313
-62.677
-61.056
-53.557
-38.604
-19.119
-0.6518
12.162
17.389
16.493
14.306
16.299
24.766
37.546
49.068
52.828
45.766
31.09
15.777
6.0419
4.97
11.886
22.88
32.659
37.146
35.893
32.202
29.837
30.015
31.839
33.63
33.267
29.196
21.755
12.461
2.1062
-8.8705
-18.895
-26.57
-32.398
-37.229
-40.399
-40.6
-37.404
-31.292
-23.248
-15.172
-9.5863
-7.6614
-8.463
-10.737
-14.028
-17.693
-20.18
-20.379
-19.004
-17.176
-14.725
-10.962
-5.4751
2.1289
11.396
19.526
22.737
20.42
16.368
14.899
16.555
17.912
15.383
8.8157
1.4492
-3.1603
-4.61
-6.1219
-10.439
-15.495
-15.808
-8.3564
4.5533
17.756
26.399
28.766
28.558
31.543
38.353
43.346
40.599
28.842
12.05
-2.7927
-9.9775
-9.1528
-5.3872
-4.7307
-9.7232
-18.741
-28.377
-36.095
-41.354
-44.728
-45.967
-43.215
-34.513
-19.687
-1.533
12.285
9.1356
-22.455
-84.161
-163.36
-232.28
-252.76
-194.06
-55.501
126.45
293.85
394.21
403.24
332.87
222.46
117.57
47.151
14.444
5.4137
3.0815
-4.5478
-24.448
-58.838
-102.44
-142.56
-165.16
-163.01
-139.81
-107.37
-78.371
-59.813
-51.158
-47.707
-45.295
-41.818
-36.574
-29.769
-21.82
-12.386
-0.3192
15.064
32.102
46.26
52.521
49.004
38.52
26.77
18.864
17.125
21.4
30.349
41.727
52.297
58.644
57.597
46.695
27.057
5.6693
-7.3974
-5.422
9.3707
25.752
31.081
20.646
0.0236
-20.313
-31.778
-30.925
-19.34
-2.4669
12.056
17.37
11.753
0.6894
-7.6558
-9.2532
-5.0802
2.7003
12.098
20.131
23.779
21.566
12.857
-2.2757
-21.163
-37.823
-45.691
-42.511
-33.324
-27.503
-30.888
-40.955
-50.477
-54.655
-54.043
-51.937
-50.076
-46.765
-38.528
-23.505
-3.4515
17.411
34.63
44.646
45.539
37.958
25.163
11.963
3.5962
4.2972
14.952
31.326
45.301
49.776
43.903
32.974
22.959
16.416
13.51
14.638
19.604
24.89
25.479
20.658
15.718
16.404
22.453
27.045
21.886
3.8725
-21.105
-41.59
-49.193
-43.784
-31.794
-21.347
-17.164
-18.094
-19.53
-18.4
-15.986
-15.406
-16.702
-16.118
-10.426
-0.8261
7.3798
8.5752
1.2179
-10.439
-19.2
-19.95
-12.339
-0.2146
10.405
14.121
9.5465
1.0313
-4.2781
-2.0673
6.1027
14.264
16.888
13.719
9.4473
8.4705
10.743
11.72
5.9496
-7.8189
-24.718
-36.722
-37.633
-26.478
-7.0636
14.599
32.733
44.066
49.069
50.677
51.103
49.829
44.753
34.699
20.424
3.6587
-13.449
-27.585
-35.256
-36.181
-34.227
-33.85
-36.609
-40.999
-44.17
-43.883
-39.347
-30.385
-17.107
-1.2055
12.967
17.57
1.1139
-46.117
-120.6
-197.37
-234.66
-193.7
-64.593
119.77
296.21
403.21
410.29
328.34
198.91
71.033
-20.411
-63.498
-65.81
-45.608
-22.919
-13.221
-23.503
-50.592
-83.892
-111.44
-124.74
-120.72
-102.83
-80.44
-63.755
-57.704
-60.327
-65.055
-63.838
-51.004
-27.672
-2.3867
15.254
22.542
24.331
27.079
33.77
42.677
49.508
51.342
48.01
40.745
31.915
25.103
23.538
27.965
34.827
36.939
29.022
13.581
-0.7324
-6.7755
-3.5486
5.3634
15.21
21.656
21.504
14.305
2.9094
-8.2851
-15.246
-15.391
-8.7746
1.2142
9.8049
14.341
15.315
14.905
15.258
16.981
18.936
19.746
19.151
17.75
14.938
7.765
-6.108
-24.801
-43.328
-57.444
-65.328
-66.571
-61.159
-50.604
-39.577
-34.116
-37.068
-45.226
-50.778
-46.651
-31.353
-9.2523
11.815
24.126
24.813
17.244
6.8942
-2.7615
-9.9684
-12.993
-10.761
-3.4686
8.6466
24.869
41.97
55.438
62.985
65.083
62.798
56.788
48.116
38.861
31.377
26.6
23.413
20.151
16.707
15.181
17.039
18.718
13.281
-2.2862
-24.162
-45.003
-57.553
-57.101
-44.272
-26.459
-13.758
-10.95
-14.816
-19.702
-22.389
-21.326
-16.056
-8.7635
-3.1366
-1.1113
-1.9609
-4.1003
-6.5948
-8.5554
-8.6129
-6.7909
-5.4527
-6.0861
-6.791
-4.5682
1.8672
11.768
22.389
28.961
26.841
15.259
-1.7967
-18.429
-29.228
-30.206
-20.185
-1.9637
17.943
31.67
34.282
26.956
17.136
15.461
28.269
50.032
65.546
61.968
38.753
7.2055
-17.86
-28.003
-26.149
-22.705
-26.337
-37.566
-49.44
-53.267
-45.237
-29.951
-17.558
-15.836
-24.03
-33.149
-32.251
-17.312
3.9509
15.694
2.7242
-41.288
-108.05
-171.48
-192.86
-140.09
-11.338
157.2
307.16
385.13
365.93
264.24
127.78
11.304
-52.56
-64.623
-48.299
-29.739
-24.177
-34.151
-54.465
-76.847
-92.722
-95.844
-85.719
-69.358
-57.293
-56.113
-64.737
-75.918
-80.142
-70.721
-47.599
-17.426
9.4517
24.175
24.302
14.739
4.7985
3.8681
16.227
36.713
53.086
55.68
44.745
28.883
18.271
18.134
25.865
33.899
35.413
28.1
15.257
3.6648
-1.7193
-0.6941
4.59
11.784
17.245
15.94
5.3932
-9.9525
-20.779
-20.621
-10.38
3.7833
15.344
21.593
24.28
25.834
25.76
21.856
13.548
3.1099
-4.9641
-6.2639
0.125
10.251
17.53
16.944
8.2014
-4.8723
-17.895
-28.478
-36.302
-42.16
-47.051
-51.702
-56.725
-62.343
-66.764
-66.247
-58.768
-46.416
-33.713
-24.907
-21.824
-22.355
-21.48
-14.925
-1.4332
18.013
40.305
58.935
66.508
61.011
47.821
34.917
28.358
31.157
41.767
52.988
56.241
48.499
33.917
19.426
10.065
7.4194
10.255
15.705
20.629
22.416
19.12
10.153
-2.8873
-17.361
-31.125
-41.687
-45.635
-40.517
-27.362
-11.804
-1.5257
-0.9288
-8.5928
-19.289
-26.987
-27.743
-22.492
-16.203
-13.102
-13.28
-13.899
-13.29
-12.848
-13.661
-12.987
-6.786
4.5442
15.446
20.714
19.23
12.53
3.3734
-4.4286
-7.7174
-5.6104
0.5169
7.324
10.785
8.7974
2.7042
-3.4024
-4.7203
1.3655
12.556
22.679
27.196
27.492
29.166
35.723
44.296
48.051
42.389
29.116
14.457
2.255
-9.6806
-25.068
-42.585
-55.734
-58.026
-47.498
-28.669
-11.499
-5.9517
-14.324
-28.5
-35.878
-28.637
-8.5931
14.131
25.668
13.478
-29.187
-98.87
-176.73
-228.05
-215.49
-122.51
31.785
199.69
327.7
379.52
349.02
259.43
149.37
53.328
-11.032
-42.971
-51.638
-48.793
-44.476
-45.85
-55.595
-69.846
-80.623
-82.624
-77.629
-71.804
-69.717
-71.805
-75.78
-78.797
-78.044
-69.88
-51.889
-27.745
-7.2698
0.4184
-5.5934
-16.424
-19.882
-9.6388
11.442
35.208
53.725
62.747
62.874
58.023
52.41
48.401
46.043
44.303
42.596
40.34
35.895
28.28
19.344
11.571
5.1332
-0.7805
-6.1761
-11.436
-17.837
-25.531
-32.363
-34.807
-29.766
-16.651
1.6217
19.543
31.253
33.607
28.051
19.399
12.971
12.243
17.511
26.195
34.455
37.958
32.383
16.337
-5.6659
-25.611
-38.353
-44.22
-45.575
-43.657
-40.06
-39.204
-46.297
-61.789
-78.955
-87.496
-79.769
-55.784
-23.919
3.1853
14.883
8.8055
-7.0947
-20.983
-25.666
-19.861
-4.685
17.151
40.514
59.21
68.05
64.832
51.929
35.444
22.638
18.817
24.424
34.912
43.863
46.714
42.169
31.293
17.424
6.3617
3.0575
6.8863
11.642
11.228
4.8752
-3.1804
-7.5416
-5.4258
1.0047
5.5182
2.4773
-8.0332
-20.014
-27.244
-28.623
-27.816
-28.804
-32.267
-35.77
-36.318
-32.262
-24.074
-14.7
-8.5086
-7.7472
-10.095
-11.668
-11.645
-11.806
-12.46
-11.04
-4.5683
7.6206
22.976
36.296
41.68
35.679
20.155
2.0317
-11.518
-18.6
-22.333
-24.999
-24.505
-17.178
-2.5582
15.181
30.235
39.017
41.65
40.908
39.634
38.85
38.396
37.975
35.89
28.346
13.035
-7.2113
-26.236
-38.656
-41.563
-35.789
-26.951
-21.986
-23.422
-28.463
-32.459
-31.841
-25.734
-15.965
-5.2113
3.3176
3.7884
-11.778
-48.851
-106.02
-172.23
-223.99
-228.19
-158.68
-18.199
155.8
308.93
396.06
399.64
333.46
231.87
130.37
50.11
-4.7497
-39.335
-59.788
-71.278
-79.313
-88.174
-97.554
-102.94
-100.68
-92.71
-85.92
-86.547
-94.244
-101.57
-100.01
-87.116
-67.634
-48.273
-32.202
-18.703
-6.4777
4.4166
13.624
21.857
30.208
38.431
44.936
48.152
47.266
43.024
38.087
35.042
34.551
36.331
40.185
44.716
46.871
44.346
37.201
27.059
16.536
8.489
3.9543
1.3572
-1.8394
-6.6025
-11.127
-12.925
-11.787
-9.4959
-7.4443
-5.5875
-3.046
1.0208
6.5761
11.557
12.309
7.2299
-0.1459
-3.3049
1.6698
12.9
24.379
30.037
26.926
16.248
2.2648
-10.758
-21.452
-30.639
-38.389
-44.374
-50.747
-61.223
-76.529
-91.704
-97.871
-87.883
-62.052
-28.92
-0.537
14.187
13.904
4.3522
-5.9622
-10.091
-4.8731
8.8323
27.072
44.113
54.745
57.625
56.434
56.621
60.756
66.186
66.4
56.061
35.883
12.748
-4.5212
-10.188
-4.4238
7.291
17.383
20.201
14.453
2.6913
-10.333
-18.813
-18.515
-10.713
-1.8496
2.6923
2.6846
0.2881
-3.2805
-7.818
-13.634
-21.029
-29.21
-35.585
-37.057
-33.313
-28.06
-25.813
-27.623
-29.95
-27.25
-16.004
2.32
21.33
33.214
32.677
19.348
-1.1385
-19.321
-27.026
-21.239
-5.1349
13.805
27.65
31.328
24.657
12.299
0.6603
-6.0514
-7.47
-5.587
-2.4504
0.1416
0.0981
-3.2409
-7.0348
-6.7138
0.2305
12.742
27.298
40.07
48.424
50.674
45.682
33.816
17.645
1.0124
-12.412
-20.341
-22.899
-22.56
-22.445
-23.951
-25.665
-24.845
-20.546
-15.468
-13.748
-16.44
-19.637
-17.187
-6.5627
6.3886
9.2696
-9.6333
-55.63
-124.65
-198.83
-244.94
-226.44
-126.36
36.945
214.41
348.46
399.09
360.71
261.54
146.52
54.437
1.6365
-18.796
-24.101
-28.307
-37.855
-53.962
-74.945
-96.569
-113.1
-119.87
-115.64
-103.54
-88.815
-74.63
-60.703
-45.842
-30.869
-18.931
-12.729
-11.818
-13.384
-15.009
-15.09
-11.109
-0.4619
15.897
32.274
41.84
41.579
34.034
24.874
19.697
22.151
32.049
44.615
53.303
54.271
48.294
38.303
25.955
11.964
-0.8861
-7.1504
-3.0292
8.2937
17.528
16.372
3.1034
-16.835
-33.766
-39.346
-31.438
-14.656
2.6773
13.55
16.607
15.593
14.948
16.968
22.289
30.524
39.29
44.791
44.319
36.519
20.761
-0.7603
-21.596
-34.953
-39.95
-42.204
-47.854
-58.966
-73.472
-86.066
-90.188
-83.107
-69.089
-55.179
-44.611
-35.252
-23.11
-6.7632
11.33
27.192
37.773
41.768
39.774
33.684
25.684
18.461
15.359
17.827
23.067
26.7
27.065
25.522
24.439
25.61
28.85
31.964
32.687
30.209
25.277
19.72
15.511
13.869
15.13
18.745
22.821
24.202
20.057
9.747
-4.3622
-17.656
-26.407
-30.561
-31.991
-31.069
-27.278
-22.026
-18.259
-17.663
-19.665
-22.717
-25.333
-26.253
-25.008
-22.105
-18.018
-12.688
-6.0844
1.5925
9.6779
16.04
17.712
13.575
5.2025
-4.487
-11.965
-14.286
-11.624
-7.4662
-5.4821
-6.6919
-8.9562
-9.5836
-8.2368
-5.5612
-0.7656
7.4978
19.175
32.186
43.191
49.352
50.178
48.094
47.129
49.674
52.83
49.51
35.384
13.527
-8.1768
-22.491
-26.641
-23.697
-20.567
-23.244
-33.896
-50.681
-67.428
-75.501
-69.811
-52.829
-31.856
-13.867
-3.1053
-1.8653
-12.829
-39.763
-84.042
-137.76
-178.4
-173.79
-100.22
36.864
197.1
323.04
370.38
330.28
230.72
117.29
27.856
-22.989
-42.636
-47.124
-48.733
-52.044
-56.861
-62.67
-69.574
-76.351
-80.222
-79.074
-73.381
-65.882
-58.974
-52.438
-44.583
-34.891
-24.101
-12.63
-0.9133
8.8476
13.167
10.502
3.4935
-2.563
-3.3746
1.7203
9.4177
14.635
14.884
13.235
15.491
24.52
38.015
49.681
52.384
43.313
26.718
10.925
3.2999
5.8366
13.335
18.209
17.809
15.039
13.52
13.948
13.087
5.9947
-8.7543
-26.12
-37.346
-35.526
-20.097
2.2175
21.088
29.316
27.684
22.608
19.456
20.02
24.115
29.355
30.682
23.721
8.3381
-11.549
-30.524
-44.441
-52.03
-54.868
-55.788
-56.067
-54.521
-50.422
-45.867
-43.727
-44.221
-44.288
-40.469
-32.73
-24.23
-16.915
-9.7214
-1.338
7.894
16.93
24.93
31.144
34.841
35.88
35.312
35.026
36.464
39.419
42.59
44.604
43.25
35.885
23.017
10.228
4.445
8.1543
17.75
26.723
29.814
25.375
15.781
5.9652
0.3336
0.339
4.4443
9.0396
9.5835
3.3229
-7.667
-17.494
-22.1
-23.333
-26.8
-36.712
-52.012
-65.45
-67.882
-55.581
-32.747
-8.0683
9.4475
14.586
9.7024
2.9971
1.1291
4.5619
9.9992
14.574
16.667
15.446
11.485
6.7304
3.2589
1.7471
0.6519
-2.3278
-7.5784
-13.359
-18.181
-21.868
-24.032
-22.612
-14.741
0.3257
19.14
35.684
45.369
47.904
46.908
46.471
47.93
49.755
48.95
42.302
28.235
8.3011
-13.476
-32.442
-44.447
-46.871
-40.815
-31.781
-25.819
-24.498
-24.569
-22.814
-19.895
-18.38
-19.002
-20.578
-22.029
-24.471
-33.763
-59.908
-108.86
-170.27
-212.52
-195.91
-99.315
60.085
231.09
353.76
388.92
335.51
227.6
113.65
31.291
-7.1504
-13.144
-8.5329
-9.8349
-21.818
-42.066
-67.273
-93.485
-113.59
-120.16
-111.91
-94.551
-75.082
-58.063
-46.938
-44.234
-49.166
-56.736
-59.666
-52.454
-34.981
-12.241
8.7451
22.352
27.534
28.129
29.137
33.045
39.441
46.505
51.968
53.618
49.902
40.53
28.332
19.423
17.373
18.563
16.423
8.4253
-1.9587
-8.5355
-7.5381
-0.1396
8.9567
14.492
13.954
9.6751
6.6674
7.2596
8.9359
8.2124
5.0184
2.9432
6.5768
17.398
30.716
38.39
35.515
23.38
7.4605
-5.9137
-12.772
-13.458
-12.21
-14.275
-22.218
-34.301
-45.534
-50.837
-49.076
-44.123
-41.256
-43.333
-50.131
-58.705
-63.206
-57.13
-38.768
-14.517
4.6492
11.478
7.566
0.3509
-2.9535
1.8591
14.572
29.104
37.008
34.924
26.632
17.742
11.855
11.354
16.963
26.256
35.626
42.938
47.112
46.717
40.636
30.088
18.886
11.509
10.75
15.539
20.867
21.608
16.655
8.7265
0.8018
-5.9057
-10.983
-14.213
-16.322
-18.572
-21.044
-22.103
-20.923
-19.983
-22.754
-29.467
-36.801
-40.652
-38.242
-29.262
-16.874
-6.755
-3.3906
-6.4465
-10.341
-8.2113
1.8097
14.446
22.548
23.463
19.112
11.626
1.8674
-8.0217
-13.913
-12.84
-5.5533
4.306
12.519
15.943
13.559
6.6877
-2.2038
-10.598
-15.833
-15.144
-6.3419
10.947
33.191
52.605
61.502
57.693
45.572
32.793
24.862
21.387
17.507
8.2894
-8.1406
-29.142
-48.328
-59.246
-58.617
-47.543
-31.718
-18.74
-13.239
-14.892
-20.104
-23.904
-20.963
-8.0787
11.389
25.595
18.863
-20.212
-92.719
-183.93
-258.95
-271.71
-191.97
-30.294
163.25
325.76
410.57
403.3
323.17
211.14
109
39.996
3.6362
-13.426
-23.264
-31.655
-41.326
-55.403
-75.71
-99.284
-120.06
-133.7
-138.42
-133.09
-117.64
-95.26
-72.19
-53.705
-40.388
-29.46
-19.548
-12.373
-9.1557
-7.9784
-5.8565
-0.9552
7.5553
19.181
31.142
39.002
39.411
33.397
26.447
24.49
30.286
42.659
57.29
68.601
72.036
65.041
47.577
23.372
-0.4983
-16.673
-20.288
-10.744
6.9215
23.481
30.455
24.918
11.014
-2.7735
-9.1914
-6.7675
0.3658
6.9724
10.36
9.7525
4.3488
-5.8099
-17.264
-23.623
-20.328
-8.416
6.778
19.167
24.06
19.277
6.3328
-9.7204
-23.284
-31.778
-36.177
-38.862
-41.916
-46.925
-54.535
-62.989
-68.605
-68.837
-63.672
-54.041
-40.538
-24.36
-8.2422
4.7237
12.461
14.423
12.806
12.866
19.583
33.165
48.161
57.34
57.33
50.779
42.791
36.543
32.788
31.074
29.799
27.273
24.132
22.608
22.645
20.788
14.161
4.9339
-0.6157
1.8692
10.101
16.727
15.605
6.0861
-7.7963
-19.826
-24.072
-18.377
-6.2032
5.8129
11.711
8.2319
-4.7123
-24.02
-43.451
-55.43
-55.678
-46.585
-35.154
-26.977
-21.974
-16.432
-8.5346
-0.5649
3.4224
1.0904
-5.8119
-11.54
-9.7936
0.9505
14.994
23.936
24.006
18.039
11.66
8.9712
10.568
13.896
14.944
10.718
1.8634
-6.6098
-8.2894
-0.7663
11.599
20.908
22.104
16.962
12.518
15.186
25.311
36.623
40.931
34.014
18.308
0.7232
-12.535
-20.04
-25.145
-32.048
-40.963
-47.266
-46.024
-36.697
-22.962
-9.4343
0.3723
5.0811
6.0727
5.1234
1.4311
-8.1241
-28.313
-65.147
-120.85
-184.37
-226.6
-210.27
-113.28
50.375
230.98
366.56
413.12
364.89
254.52
132.83
40.98
-6.3804
-19.098
-17.175
-17.11
-26.86
-47.929
-77.331
-107.47
-128.64
-134.76
-127.2
-113.17
-99.641
-88.098
-75.508
-60.097
-44.877
-35.056
-32.676
-34.024
-32.738
-25.477
-13.631
-0.0713
13.774
27.389
39.541
48.651
54.568
58.623
61.384
61.595
57.877
50.504
41.458
33.526
29.12
29.159
32.352
35.581
35.801
31.648
23.205
11.505
-1.5926
-13.636
-21.475
-22.644
-18.576
-14.933
-17.023
-24.816
-32.796
-34.703
-28.275
-15.979
-2.2755
9.4138
18.468
26.801
35.338
40.959
39.261
29.294
13.888
-2.4353
-14.508
-18.133
-12.976
-3.9618
0.8799
-4.2128
-18.079
-34.049
-45.838
-51.3
-52.046
-51.183
-51.064
-51.756
-50.588
-43.958
-31.076
-16.34
-7.3127
-8.8436
-18.217
-26.411
-24.449
-9.1523
15.152
38.871
52.688
53.354
44.998
36.104
35.051
45.201
62.151
76.58
80.536
71.162
50.632
24.947
1.8657
-12.461
-16.247
-11.947
-3.8034
4.0327
7.9202
5.3946
-3.6721
-16.471
-27.76
-32.295
-28.222
-18.16
-7.5352
-2.1865
-5.2064
-13.851
-20.668
-19.959
-13.191
-6.6464
-4.5694
-6.4016
-9.6575
-13.645
-19.346
-25.891
-29.667
-27.706
-20.302
-10.949
-4.8856
-5.7291
-11.858
-16.879
-14.758
-5.0991
6.4053
12.805
11.91
8.0141
7.1402
11.222
18.182
25.74
33.166
40.902
49.906
60.244
68.822
69.606
58.217
36.217
10.103
-13.094
-28.937
-36.221
-36.061
-30.472
-21.34
-10.594
-1.6595
0.5303
-7.3642
-24.17
-44.008
-58.271
-59.692
-47.486
-29.308
-17.01
-19.836
-41.686
-81.903
-132.59
-173.43
-175.17
-115.38
3.8859
149.97
272.72
330.27
310.02
231.76
133.79
53.109
9.7822
0.2945
2.7728
-6.0803
-34.025
-71.293
-102.22
-116.4
-112.01
-93.384
-67.496
-42.757
-27.422
-24.842
-30.616
-36.061
-34.266
-23.109
-4.7614
15.66
31.588
37.325
31.223
17.565
3.859
-4.5745
-7.1205
-7.224
-9.8345
-16.867
-25.759
-33.145
-37.102
-35.552
-25.681
-7.0328
15.979
36.903
52.493
63.57
70.122
67.71
52.092
26.695
2.7123
-8.0232
-0.4962
20.543
43.29
54.968
47.662
22.193
-10.537
-34.386
-39.495
-29.154
-13.864
-1.602
5.2894
8.0535
9.1002
10.616
14.322
20.928
28.156
30.594
22.977
3.4728
-24.995
-55.76
-81.526
-96.756
-98.692
-88.246
-69.361
-47.345
-27.938
-15.642
-10.961
-9.9245
-7.5762
-1.8728
5.5884
11.562
13.856
12.857
10.918
10.695
14.404
23.621
37.563
50.9
55.932
48.987
33.058
14.337
-0.8457
-6.3736
1.4957
19.308
35.983
40.421
29.351
7.6511
-16.031
-32.867
-36.876
-27.947
-12.253
0.8195
3.9563
-2.5458
-10.391
-11.444
-5.8703
0.1631
2.0916
-0.3156
-4.1685
-5.0747
-0.1098
9.4733
19.203
24.815
24.98
22.113
20.508
22.341
25.621
26.413
21.437
8.8086
-10.55
-31.756
-47.914
-53.214
-44.852
-24.517
0.448
18.296
18.937
1.4946
-24.364
-44.589
-48.508
-33.313
-4.3966
27.142
48.895
52.554
37.83
12.937
-9.1934
-19.087
-17.018
-10.062
-4.7158
-3.8846
-7.2185
-11.476
-12.587
-9.6552
-6.342
-6.9028
-10.865
-12.985
-9.5945
-3.1973
1.2819
2.7153
4.0997
8.1751
13.056
10.458
-10.864
-57.507
-123.87
-187.08
-210.4
-161.24
-35.143
133.57
285.99
368.5
358.14
270.29
147.78
38.167
-28.615
-49.115
-39.555
-22.341
-14.955
-24.681
-48.995
-78.714
-101.91
-109.71
-102.8
-91.636
-86.903
-90.06
-93.952
-89.834
-72.929
-45.136
-14.3
11.098
27.233
34.69
35.152
30.469
23.794
19.305
19.815
24.648
30.361
34.01
35.579
36.697
37.618
37.024
34
28.117
18.935
7.4175
-3.4823
-10.223
-10.026
-2.6709
7.4578
12.652
7.6341
-5.5792
-19.099
-24.694
-18.141
-1.0807
19.257
33.7
37.307
32.415
24.681
17.224
10.333
5.003
3.2902
5.3559
8.5697
9.4937
5.9743
-1.7319
-11.145
-18.793
-21.767
-19.225
-13.116
-8.0884
-9.9467
-21.932
-41.767
-62.569
-76.667
-79.19
-69.322
-49.668
-25.625
-4.6168
6.9352
7.2096
-0.5766
-10.08
-14.234
-8.5486
6.46
25.634
40.988
45.351
37.566
23.493
11.293
7.1651
14.199
31.308
51.997
65.869
63.682
43.427
12.825
-14.904
-28.908
-26.166
-11.395
7.1286
21.456
26.303
21.464
12.273
5.6002
5.0207
9.7841
16.142
18.424
11.598
-4.7667
-25.424
-41.888
-46.384
-37.423
-22.587
-12.608
-12.452
-19.391
-27.317
-30.719
-26.745
-16.835
-6.2519
0.0292
0.957
-1.1321
-3.0575
-2.7161
0.2113
4.8512
9.6724
12.665
12.371
8.1948
-0.3302
-12.217
-23.526
-29.351
-26.627
-15.466
0.5516
16.621
30.194
41.983
54.02
66.287
74.731
72.877
56.434
28.26
-1.5582
-22.347
-29.554
-25.676
-17.297
-11.661
-13.288
-21.77
-33.003
-42.082
-45.116
-41.118
-32.964
-24.169
-14.717
-2.3342
11.247
16.224
-1.3061
-50.358
-127.29
-210.08
-259.07
-233.48
-118.39
59.976
244.57
375.29
416.18
368.66
265.72
152.16
63.065
10.815
-13.712
-27.585
-42.282
-59.933
-77.088
-89.828
-96.778
-99.141
-99.52
-100.48
-102.34
-102.44
-97.568
-86.74
-71.785
-56.01
-42.261
-31.829
-24.386
-18.541
-12.938
-6.764
1.356
13.235
27.888
40.537
46.867
46.198
40.74
34.586
31.979
34.199
38.815
42.144
42.176
39.832
37.275
35.252
33.264
31.335
29.905
28.357
24.412
16.018
4.1526
-7.4439
-15.246
-18.188
-17.744
-16.437
-16.066
-16.467
-15.259
-9.7688
-0.387
9.0679
15.105
17.557
19.138
22.722
27.752
29.415
23.097
9.2966
-6.8082
-19.554
-25.792
-26.069
-25.539
-31.511
-46.787
-66.323
-80.945
-83.291
-71.985
-52.413
-33.422
-22.192
-20.263
-23.079
-24.078
-19.446
-9.1502
4.5186
18.579
30.99
40.856
46.809
47.2
42.451
35.008
27.095
20.217
16.414
18.141
25.851
36.243
43.493
42.382
31.781
16.469
4.7432
2.3687
7.8669
14.156
14.693
8.2107
-1.19
-7.3318
-5.5737
3.7927
14.015
16.284
7.0036
-10.159
-27.637
-37.853
-37.015
-27.935
-17.951
-13.516
-17.075
-26.036
-33.17
-31.587
-20.846
-6.8992
3.58
8.2347
8.4333
5.3075
-0.4215
-5.4829
-4.7097
3.5421
13.418
15.775
6.633
-10.332
-27.278
-36.068
-32.107
-17.524
0.0461
12.691
16.837
14.773
12.477
14.655
21.744
31.718
43.065
54.515
62.66
62.589
51.988
33.408
11.911
-7.7738
-21.518
-27.203
-26.987
-25.379
-25.638
-28.897
-34.228
-38.469
-38.291
-33.474
-26.575
-19.782
-13.954
-9.509
-6.4003
-5.0447
-9.4922
-28.874
-72.573
-139.7
-209.84
-245.32
-209.41
-90.422
85.829
264.5
386.82
418.55
364.88
262.72
157.37
79.118
32.749
5.3017
-17.241
-40.977
-66.131
-90.742
-111.75
-125.92
-130.92
-126.3
-114.85
-101.94
-91.43
-83.059
-74.205
-62.749
-48.489
-33.707
-21.877
-15.018
-13.011
-14.109
-15.017
-12.468
-5.2779
5.929
20.053
35.375
48.632
55.948
55.387
48.173
37.921
29.305
26.184
29.896
39.139
50.707
60.12
62.712
55.688
39.878
19.408
0.0298
-13
-17.728
-16.485
-13.235
-10.34
-7.755
-4.6619
-1.825
-1.3673
-4.0426
-8.3057
-11.106
-8.8064
-0.3073
10.883
20.037
25.111
26.703
26.173
24.145
19.738
11.107
-2.0852
-17.189
-30.913
-42.306
-52.502
-62.493
-71.564
-77.382
-77.919
-73.1
-64.401
-53.814
-42.694
-31.072
-18.924
-7.3669
2.4441
10.825
19.046
27.362
34.682
40.493
45.16
48.341
49.159
46.982
41.032
30.553
16.238
1.729
-6.8229
-4.4694
7.9251
23.33
33.697
34.843
27.437
16.387
8.9073
10.394
21.477
37.967
51.592
52.582
35.352
3.3713
-31.22
-53.939
-56.514
-41.452
-19.876
-4.865
-3.6664
-13.561
-25.895
-34.372
-38.326
-39.423
-38.089
-33.646
-26.192
-16.613
-5.7526
4.2301
9.4781
7.8726
1.2254
-6.4596
-11.277
-11.182
-7.1916
-2.2116
1.6284
4.5697
8.6791
15.199
22.557
27.92
29.88
28.634
24.908
20.271
17.108
16.796
18.979
22.371
25.322
26.805
26.729
23.961
15.773
1.1398
-17.109
-34.286
-45.939
-47.701
-36.643
-15.943
3.9714
12.863
8.9529
-1.2415
-10.081
-14.713
-16.234
-15.479
-11.972
-5.579
1.8545
4.4857
-7.017
-40.183
-95.358
-162.57
-219.45
-234.07
-178.52
-49.149
122.34
280.73
375.29
383.13
315.04
205.96
97.126
17.601
-25.353
-40.935
-42.331
-39.417
-38.987
-45.529
-59.342
-76.17
-90.231
-98.022
-99.843
-97.638
-92.043
-82.699
-71.25
-61.716
-56.281
-52.227
-43.819
-26.873
-2.9025
20.56
35.034
37.678
33.092
28.636
28.328
31.013
32.841
30.785
25.125
19.681
19.402
26.885
40.105
52.729
57.204
49.366
31.458
10.782
-5.3753
-14.35
-17.807
-17.808
-14.47
-7.0967
2.6923
9.3235
6.9529
-4.4091
-17.524
-22.795
-14.745
4.6997
27.676
44.757
49.894
43.847
32.975
23.354
16.487
11.14
7.054
4.6029
2.066
-3.9139
-14.861
-28.833
-42.275
-52.467
-58.029
-58.642
-55.411
-50.756
-46.986
-44.667
-42.912
-41.377
-40.459
-39.199
-35.064
-26.828
-16.601
-7.7533
-1.5273
3.1452
7.999
14.431
22.268
29.291
33.322
34.973
37.389
42.575
48.879
53.021
53.093
48.748
40.971
32.392
25.853
22.767
23.205
26.141
29.075
28.498
22.487
12.711
2.4779
-5.9186
-11.6
-15.315
-18.497
-21.235
-23.091
-24.974
-27.968
-31.055
-31.398
-27.387
-21.2
-17.389
-18.745
-23.918
-28.445
-27.562
-19.56
-7.9622
1.1391
5.0225
5.7129
5.6272
4.4567
0.3276
-7.7056
-17.894
-25.975
-28.514
-25.79
-19.799
-10.511
3.6397
21.805
39.116
49.658
50.705
44.913
39.393
40.666
48.282
54.586
51.805
38.242
18.165
-2.0472
-17.541
-26.526
-29.627
-28.423
-24.57
-19.99
-17.214
-18.735
-25.181
-34.042
-40.76
-40.894
-31.864
-14.624
4.8943
15.803
5.653
-33.69
-100.19
-176.48
-229.68
-222.49
-133.34
25.613
207.32
350.18
406.34
362.77
246.06
107.49
-3.5886
-61.611
-70.876
-54.856
-37.892
-32.336
-37.914
-49.764
-64.76
-80.419
-92.278
-95.521
-87.928
-70.482
-46.645
-22.59
-6.7079
-4.8629
-14.706
-26.566
-30.856
-24.596
-12.057
-0.4322
5.6376
6.8139
7.3037
10.381
15.504
19.9
22.053
22.627
23.138
25.218
30.032
36.75
41.928
41.467
34.114
22.885
12.253
4.5589
0.1539
-0.9174
0.0614
-0.5273
-5.3879
-12.554
-16.756
-13.976
-4.1165
9.2644
21.087
27.507
27.209
20.892
11.567
4.9627
5.8563
13.1
20.327
21.74
16.613
8.5417
1.2452
-4.0031
-7.5612
-10.49
-14.902
-22.195
-29.901
-33.519
-32.171
-29.68
-30.338
-35.512
-43.198
-49.745
-52.704
-51.562
-46.658
-39.629
-33.689
-31.104
-30.57
-27.917
-19.856
-6.7634
8.109
21.101
30.433
37.03
42.788
48.655
54.384
58.613
59.238
55.046
47.24
38.841
32.557
29.455
29.152
30.145
30.049
26.863
20.191
10.555
-1.0572
-12.064
-19.151
-20.814
-17.445
-10.338
-2.4227
1.5157
-2.5352
-14.589
-30.136
-42.16
-44.336
-35.203
-20.804
-10.989
-11.556
-20.997
-33.046
-39.61
-33.978
-15.22
9.9574
30.394
37.101
28.882
12.37
-3.1845
-12.268
-16.368
-21.072
-29.163
-37.063
-37.828
-26.363
-2.9475
25.245
46.76
53.173
44.575
28.886
17.093
16.971
29.112
47.924
65.066
72.784
66.368
45.129
12.436
-24.157
-53.9
-67.232
-61.514
-42.727
-21.605
-8.034
-7.0461
-16.802
-29.794
-37.468
-35.092
-23.684
-8.5412
3.2025
3.551
-15.699
-59.676
-124.07
-189.11
-220.59
-184.37
-69.955
95.352
256.75
360.01
376.4
311.56
199.41
85.262
4.6138
-31.078
-33.464
-23.732
-18.524
-25.295
-44.54
-71.311
-96.195
-109.77
-108.49
-96.393
-81.617
-70.914
-65.53
-61.969
-56.455
-47.398
-34.928
-20.548
-7.7947
-1.269
-2.7141
-8.4642
-11.509
-5.7736
9.929
29.889
44.549
48.179
43.515
38.074
37.141
40.974
46.49
49.65
47.825
41.541
33.513
25.435
15.961
2.978
-12.317
-25.037
-30.034
-25.225
-13.019
0.52
9.1932
10.989
9.018
7.7528
9.1264
12.81
18.149
23.968
28.466
30.802
31.123
28.798
21.991
9.7954
-5.42
-19.193
-28.5
-33.133
-34.415
-33.58
-31.126
-27.416
-23.675
-21.417
-21.073
-22.376
-25.363
-30.253
-36.851
-43.928
-49.067
-49.377
-42.967
-30.763
-17.311
-8.5422
-6.9611
-9.4947
-11.003
-8.5083
-1.8622
7.5019
17.695
27.239
35.769
44.129
53.159
61.905
67.068
64.559
52.983
36.154
21.22
14.04
15.754
22.441
28.012
28.12
22.429
14.407
8.5441
6.6051
5.8144
1.0335
-10.068
-24.55
-37.403
-45.225
-46.09
-38.892
-25.769
-13.315
-8.4373
-13.855
-27.241
-41.878
-49.044
-43.219
-26.209
-5.6274
11.06
21.114
25.756
26.116
21.808
13.148
2.3859
-7.6159
-14.646
-17.171
-14.571
-8.4638
-2.7126
-0.1472
0.3035
1.4568
3.8894
5.8421
6.2055
6.5013
9.8066
18.088
31.209
47.116
61.141
66.847
60.188
42.734
20.476
0.2294
-13.389
-18.987
-17.878
-13.999
-12.893
-18.376
-30.324
-44.869
-55.904
-58.482
-51.646
-37.548
-19.162
0.0572
15.401
21.087
10.833
-21.391
-78.086
-152.22
-221.92
-252.47
-211.86
-92.494
79.079
252.32
374.61
413.28
368.46
270.43
161.93
75.814
21.851
-8.2814
-26.028
-38.121
-48.803
-61.819
-78.041
-94.047
-105.27
-109.78
-108.7
-105.28
-103.94
-107.4
-113.84
-116.89
-109.02
-86.343
-51.627
-13.586
17.469
35.705
42.582
42.889
39.748
34.612
28.758
23.328
19.781
19.833
23.678
29.522
35.798
42.527
49.559
54.298
52.272
41.277
24.979
10.806
4.3396
6.1337
12.593
19.347
23.729
24.077
19.018
9.2845
-1.5036
-9.031
-10.09
-3.5794
7.5269
16.425
17.452
11.152
3.6735
0.6359
1.5634
1.1529
-4.44
-14.037
-23.121
-27.585
-26.652
-22.834
-19.461
-19.019
-22.41
-27.766
-30.919
-28.579
-21.392
-14.014
-11.453
-14.872
-21.687
-28.782
-34.14
-36.83
-37.134
-35.701
-32.349
-26.974
-20.544
-13.547
-4.7496
6.7545
19.035
28.174
31.282
28.439
22.789
19.271
22.319
33.351
49.999
67.467
79.817
81.373
69.4
45.685
16.318
-9.286
-22.371
-20.604
-9.1519
4.1116
13.903
19.123
20.5
17.258
7.3648
-8.4341
-24.723
-35.28
-38.249
-36.679
-34.71
-33.404
-29.839
-21.444
-11.153
-5.9252
-9.5452
-18.397
-24.965
-24.148
-15.748
-3.2604
8.2436
14.606
14.845
10.897
4.3979
-5.1409
-17.922
-31.154
-39.689
-39.009
-28.776
-13.405
2.243
16.26
27.784
34.522
34.875
31.699
31.515
39.119
53.465
68.659
77.921
76.508
62.461
36.635
3.3363
-29.733
-54.015
-63.667
-57.708
-40.758
-22.514
-13.543
-18.049
-30.724
-41.618
-43.806
-36.786
-24.326
-11.005
-1.2264
-0.1395
-14.343
-50.543
-110.02
-179.79
-227.95
-214.22
-116.15
49.287
229.93
364.88
413.1
369.94
265.57
146.5
51.318
-3.9215
-24.642
-27.332
-29.067
-40.665
-64.075
-93.68
-119.29
-130.21
-121.72
-100.63
-82.176
-78.4
-88.292
-99.013
-96.892
-77.847
-48.292
-18.482
3.9709
16.508
21.272
23.645
28.596
36.687
44.763
50.211
52.524
51.164
44.651
33.03
19.902
10.79
9.2895
14.308
20.888
23.686
20.147
12.145
5.0079
3.7569
9.5323
18.828
25.376
23.856
13.576
-1.0972
-13.795
-20.002
-19.403
-14.855
-9.0163
-2.6817
4.2928
12.179
21.344
31.223
39.34
42.78
40.169
31.781
19.182
4.9712
-8.2083
-18.316
-24.285
-26.856
-28.222
-30.486
-34.826
-41.295
-48.806
-55.639
-59.858
-59.557
-54.142
-45.539
-37.126
-31.574
-29.743
-30.266
-29.201
-21.797
-7.0058
10.316
23.133
27.997
26.616
22.73
19.643
20.32
26.481
36.312
45.037
49.103
48.624
45.684
42.314
40.185
40.045
40.076
35.904
24.537
8.6332
-4.6349
-9.3977
-5.0315
4.6026
13.816
17.756
14.6
6.1733
-3.2811
-9.506
-10.886
-9.8349
-11.692
-21.203
-38.644
-58.728
-73.045
-74.237
-60.215
-36.489
-13.768
-0.7588
1.5475
-1.6407
-4.2583
-2.5265
3.9418
12.007
17.195
16.598
10.216
1.1912
-5.5428
-6.2115
-0.6472
7.5959
13.912
15.982
14.731
12.852
13.632
20.541
34.459
50.199
58.214
50.965
28.314
-1.3072
-24.712
-31.563
-21.252
-3.5
8.2902
5.7617
-9.4963
-27.447
-36.838
-33.101
-20.175
-6.117
1.9846
1.3986
-5.5344
-14.959
-26.448
-44.582
-76.001
-122.43
-172.76
-201.52
-178.53
-87.122
58.712
214.58
328.02
364.92
322.44
226.11
115.59
25.926
-25.969
-42.693
-37.698
-26.096
-20.296
-27.743
-48.476
-75.557
-100
-115.81
-121.19
-116.88
-103.97
-83.419
-57.48
-31.036
-10.512
-0.6649
-1.174
-6.2758
-8.7587
-4.8287
4.2541
14.41
22.129
25.964
26.071
23.309
19.069
15.439
14.13
15.057
16.977
19.196
22.19
26.985
33.656
40.183
43.532
41.671
34.262
22.427
8.3352
-5.3384
-15.959
-21.529
-21.174
-15.775
-7.9244
0.0941
7.3706
12.955
16.34
19.01
21.991
23.409
21.288
16.953
14.098
15.098
18.084
17.946
11.101
-1.1952
-14.133
-22.992
-25.915
-24.147
-20.258
-17.047
-18.059
-26.289
-40.827
-56.917
-69.287
-74.18
-69.866
-57.044
-39.737
-25.078
-19.127
-21.54
-25.911
-26.094
-21.036
-12.737
-1.6518
13.167
30.438
46.062
56.486
60.839
59.906
55.05
47.916
39.917
31.993
25.105
21
22.116
29.754
41.618
51.673
53.532
44.909
29.136
12.061
-2.152
-11.896
-16.835
-18.021
-18.21
-20.166
-25.127
-32.528
-39.945
-44.098
-42.278
-33.385
-19.489
-5.9077
1.6491
0.186
-9.0973
-21.462
-31.105
-33.786
-28.605
-17.973
-5.9709
2.7746
4.217
-2.2867
-11.776
-16.585
-13.088
-3.725
7.5032
17.953
25.885
31.07
36.027
44.516
56.865
67.141
67.114
53.181
29.025
3.1779
-15.919
-24.857
-26.085
-24.143
-22.688
-23.067
-23.281
-21.195
-19.186
-22.023
-30.506
-39.675
-42.734
-35.378
-18.214
2.2386
15.117
9.521
-21.299
-77.129
-145.92
-198.49
-195.65
-112.22
39.751
210.88
338.97
380.74
331.52
223.31
104.17
12.364
-38.402
-55.819
-55.488
-50.596
-49.461
-56.287
-70.604
-86.591
-95.813
-92.872
-79.448
-63.015
-50.89
-45.359
-44.43
-45.328
-45.979
-44.698
-39.878
-30.124
-15.546
0.8054
13.991
20.844
22.855
24.289
27.61
32.415
37.069
39.79
39.783
37.259
32.386
25.914
19.859
15.966
14.155
13.067
11.508
9.1572
6.3675
3.5789
1.0261
-1.173
-3.0145
-4.4095
-4.6034
-2.5144
2.182
9.4825
19.808
32.011
41.318
41.321
28.531
6.1488
-15.944
-26.705
-21.401
-4.8089
12.388
21.12
19.462
11.777
3.1814
-4.3558
-11.745
-20.387
-29.644
-36.586
-39.285
-39.563
-40.64
-42.996
-44.221
-42.144
-37.494
-33.4
-32.263
-33.884
-35.697
-33.73
-25.541
-13.11
-1.2914
6.5901
11.127
15.339
21.282
28.137
33.237
34.789
33.623
32.205
32.38
34.477
37.912
41.003
40.318
32.839
19.578
5.8605
-1.8779
0.5476
12.788
28.894
39.899
39.802
29.173
13.565
-0.3732
-8.5069
-11.063
-11.341
-12.302
-14.315
-16.295
-18.261
-21.415
-26.238
-32.214
-38.771
-44.975
-48.681
-46.558
-35.819
-17.378
3.1124
18.568
24.474
19.956
6.9729
-10.466
-26.72
-35.569
-33.002
-19.836
-1.212
16.75
30.12
38.167
42.385
44.449
44.777
42.559
36.747
27.888
18.976
13.037
10.089
7.5122
2.9031
-4.0401
-11.518
-17.011
-19.673
-21.038
-22.493
-23.137
-21.196
-16.897
-13.166
-12.85
-15.178
-16.626
-15.668
-15.782
-25.496
-55.655
-111.34
-181.01
-233.06
-228.36
-144.21
7.734
183.78
328.24
398.32
381.37
297.22
185.5
85.331
18.51
-14.102
-24.331
-26.318
-30.573
-41.602
-57.998
-75.599
-91.415
-104.59
-114.48
-119.04
-115.64
-103.51
-85.634
-67.746
-54.71
-47.426
-42.723
-36.776
-28.682
-20.015
-11.607
-1.9049
11.091
26.444
39.47
44.762
40.472
30.02
20.01
16.59
22.163
34.001
46.54
55.205
58.111
55.856
50.669
44.828
38.887
30.889
17.851
-0.6203
-20.204
-34.125
-37.307
-28.809
-11.927
7.4273
23.138
31.343
32.268
29.477
26.157
22.591
17.715
11.656
5.9457
2.1671
0.7019
0.1431
-1.7732
-6.289
-13.307
-22.509
-33.348
-44.527
-54.613
-61.935
-63.327
-55.025
-36.865
-15.795
-2.8944
-4.9106
-18.939
-34.996
-43.095
-39.157
-26.547
-13.387
-7.331
-10.535
-18.076
-21.575
-15.68
-1.4946
15.372
29.204
37.729
42.353
45.335
47.479
48.405
47.846
46.306
45.156
45.858
48.346
50.471
49.091
42.004
29.786
15.345
1.4614
-10.208
-18.059
-20.205
-16.181
-8.8294
-3.5051
-4.3524
-11.034
-19.44
-25.632
-29.162
-32.897
-39.119
-45.849
-48.091
-42.449
-29.831
-14.643
-2.4629
2.8417
1.508
-2.9139
-6.527
-6.9208
-3.7198
1.7971
7.9041
12.995
15.059
11.621
1.7017
-11.333
-20.315
-19.764
-10.002
5.0419
20.921
32.974
38.005
36.908
34.051
33.844
37.348
41.351
40.851
32.987
18.872
2.1878
-12.555
-21.329
-22.999
-20.336
-17.783
-18.447
-22.445
-27.348
-30.394
-30.203
-26.547
-19.65
-10.193
0.4855
9.2832
9.5469
-8.2087
-51.698
-120.77
-201.03
-260.37
-258.59
-171.34
-10.405
177.65
333.55
413.01
404.13
327.54
222.51
126.55
58.104
14.315
-17.029
-45.306
-73.011
-98.001
-117.13
-127.65
-127.35
-116.54
-100.26
-86.581
-81.188
-83.587
-88.32
-89.014
-81.507
-65.058
-42.544
